iso3,year,commbank_lend,debtserv_exp_pct,ppg_debtserv,extdebt_lt,extdebt_png,extdebt_ppg,ifc_png,nfl_ibrd,nfl_ida,nfl_imf_conc,nfl_imf_nonconc,nfl_rdb_nonconc,nfl_multilat,nfl_other,nfl_png,ppg_offcr,ppg_debtserv_exp_pct,std_exp_pct,std_extdebt_pct,std_res_pct,totdebtserv_exp_pct
ABW,1960,,,,,,,,,,,,,,,,,,,,,
ABW,1961,,,,,,,,,,,,,,,,,,,,,
ABW,1962,,,,,,,,,,,,,,,,,,,,,
ABW,1963,,,,,,,,,,,,,,,,,,,,,
ABW,1964,,,,,,,,,,,,,,,,,,,,,
ABW,1965,,,,,,,,,,,,,,,,,,,,,
ABW,1966,,,,,,,,,,,,,,,,,,,,,
ABW,1967,,,,,,,,,,,,,,,,,,,,,
ABW,1968,,,,,,,,,,,,,,,,,,,,,
ABW,1969,,,,,,,,,,,,,,,,,,,,,
ABW,1970,,,,,,,,,,,,,,,,,,,,,
ABW,1971,,,,,,,,,,,,,,,,,,,,,
ABW,1972,,,,,,,,,,,,,,,,,,,,,
ABW,1973,,,,,,,,,,,,,,,,,,,,,
ABW,1974,,,,,,,,,,,,,,,,,,,,,
ABW,1975,,,,,,,,,,,,,,,,,,,,,
ABW,1976,,,,,,,,,,,,,,,,,,,,,
ABW,1977,,,,,,,,,,,,,,,,,,,,,
ABW,1978,,,,,,,,,,,,,,,,,,,,,
ABW,1979,,,,,,,,,,,,,,,,,,,,,
ABW,1980,,,,,,,,,,,,,,,,,,,,,
ABW,1981,,,,,,,,,,,,,,,,,,,,,
ABW,1982,,,,,,,,,,,,,,,,,,,,,
ABW,1983,,,,,,,,,,,,,,,,,,,,,
ABW,1984,,,,,,,,,,,,,,,,,,,,,
ABW,1985,,,,,,,,,,,,,,,,,,,,,
ABW,1986,,,,,,,,,,,,,,,,,,,,,
ABW,1987,,,,,,,,,,,,,,,,,,,,,
ABW,1988,,,,,,,,,,,,,,,,,,,,,
ABW,1989,,,,,,,,,,,,,,,,,,,,,
ABW,1990,,,,,,,,,,,,,,,,,,,,,
ABW,1991,,,,,,,,,,,,,,,,,,,,,
ABW,1992,,,,,,,,,,,,,,,,,,,,,
ABW,1993,,,,,,,,,,,,,,,,,,,,,
ABW,1994,,,,,,,,,,,,,,,,,,,,,
ABW,1995,,,,,,,,,,,,,,,,,,,,,
ABW,1996,,,,,,,,,,,,,,,,,,,,,
ABW,1997,,,,,,,,,,,,,,,,,,,,,
ABW,1998,,,,,,,,,,,,,,,,,,,,,
ABW,1999,,,,,,,,,,,,,,,,,,,,,
ABW,2000,,,,,,,,,,,,,,,,,,,,,
ABW,2001,,,,,,,,,,,,,,,,,,,,,
ABW,2002,,,,,,,,,,,,,,,,,,,,,
ABW,2003,,,,,,,,,,,,,,,,,,,,,
ABW,2004,,,,,,,,,,,,,,,,,,,,,
ABW,2005,,,,,,,,,,,,,,,,,,,,,
ABW,2006,,,,,,,,,,,,,,,,,,,,,
ABW,2007,,,,,,,,,,,,,,,,,,,,,
ABW,2008,,,,,,,,,,,,,,,,,,,,,
ABW,2009,,,,,,,,,,,,,,,,,,,,,
ABW,2010,,,,,,,,,,,,,,,,,,,,,
ABW,2011,,,,,,,,,,,,,,,,,,,,,
ABW,2012,,,,,,,,,,,,,,,,,,,,,
ABW,2013,,,,,,,,,,,,,,,,,,,,,
ABW,2014,,,,,,,,,,,,,,,,,,,,,
ABW,2015,,,,,,,,,,,,,,,,,,,,,
ABW,2016,,,,,,,,,,,,,,,,,,,,,
ABW,2017,,,,,,,,,,,,,,,,,,,,,
ABW,2018,,,,,,,,,,,,,,,,,,,,,
ABW,2019,,,,,,,,,,,,,,,,,,,,,
ABW,2020,,,,,,,,,,,,,,,,,,,,,
ABW,2021,,,,,,,,,,,,,,,,,,,,,
ABW,2022,,,,,,,,,,,,,,,,,,,,,
ABW,2023,,,,,,,,,,,,,,,,,,,,,
ABW,2024,,,,,,,,,,,,,,,,,,,,,
AFG,1960,,,,,,,,,,,,,,,,,,,,,
AFG,1961,,,,,,,,,,,,,,,,,,,,,
AFG,1962,,,,,,,,,,,,,,,,,,,,,
AFG,1963,,,,,,,,,,,,,,,,,,,,,
AFG,1964,,,,,,,,,,,,,,,,,,,,,
AFG,1965,,,,,,,,,,,,,,,,,,,,,
AFG,1966,,,,,,,,,,,,,,,,,,,,,
AFG,1967,,,,,,,,,,,,,,,,,,,,,
AFG,1968,,,,,,,,,,,,,,,,,,,,,
AFG,1969,,,,,,,,,,,,,,,,,,,,,
AFG,1970,,,,,,,,,,,,,,,,,,,,,
AFG,1971,,,,,,,,,,,,,,,,,,,,,
AFG,1972,,,,,,,,,,,,,,,,,,,,,
AFG,1973,,,,,,,,,,,,,,,,,,,,,
AFG,1974,,,,,,,,,,,,,,,,,,,,,
AFG,1975,,,,,,,,,,,,,,,,,,,,,
AFG,1976,,,,,,,,,,,,,,,,,,,,,
AFG,1977,,,,,,,,,,,,,,,,,,,,,
AFG,1978,,,,,,,,,,,,,,,,,,,,,
AFG,1979,,,,,,,,,,,,,,,,,,,,,
AFG,1980,,,,,,,,,,,,,,,,,,,,,
AFG,1981,,,,,,,,,,,,,,,,,,,,,
AFG,1982,,,,,,,,,,,,,,,,,,,,,
AFG,1983,,,,,,,,,,,,,,,,,,,,,
AFG,1984,,,,,,,,,,,,,,,,,,,,,
AFG,1985,,,,,,,,,,,,,,,,,,,,,
AFG,1986,,,,,,,,,,,,,,,,,,,,,
AFG,1987,,,,,,,,,,,,,,,,,,,,,
AFG,1988,,,,,,,,,,,,,,,,,,,,,
AFG,1989,,,,,,,,,,,,,,,,,,,,,
AFG,1990,,,,,,,,,,,,,,,,,,,,,
AFG,1991,,,,,,,,,,,,,,,,,,,,,
AFG,1992,,,,,,,,,,,,,,,,,,,,,
AFG,1993,,,,,,,,,,,,,,,,,,,,,
AFG,1994,,,,,,,,,,,,,,,,,,,,,
AFG,1995,,,,,,,,,,,,,,,,,,,,,
AFG,1996,,,,,,,,,,,,,,,,,,,,,
AFG,1997,,,,,,,,,,,,,,,,,,,,,
AFG,1998,,,,,,,,,,,,,,,,,,,,,
AFG,1999,,,,,,,,,,,,,,,,,,,,,
AFG,2000,,,,,,,,,,,,,,,,,,,,,
AFG,2001,,,,,,,,,,,,,,,,,,,,,
AFG,2002,,,,,,,,,,,,,,,,,,,,,
AFG,2003,,,,,,,,,,,,,,,,,,,,,
AFG,2004,,,,,,,,,,,,,,,,,,,,,
AFG,2005,,,,,,,,,,,,,,,,,,,,,
AFG,2006,,,9259252.199999999,920022562.7,,920022562.7,0,,36957000,,,,103209000,77984.60000000001,,142941198.4,,,1.9553,,
AFG,2007,,,4514050.9,1902610499,,1902610499,0,,44271000,,54805961.8,,138845000,300058.4,,145710171.5,,,1.0703,,
AFG,2008,,.402819293,7292000,1994506003,,1994506003,0,,43430000,,35725075,,94500000,133325.3,,95104058.59999999,.365762674,.921137595,.8565,.603633575,.402819293
AFG,2009,,.487686263,9670000,2106108788,,2106108788,0,,26659000,,17430052.1,,107893000,7373066.3,,105634066.3,.439138776,.969679684,.8609,.500545382,.487686263
AFG,2010,,.34415629,8675000,1975547214,,1975547214,0,,8372000,,8621518.800000001,,75035000,1728339.8,,75035339.8,.315844562,3.825371034,4.3134,2.035234983,.379800305
AFG,2011,,.313643499,9747904.9,2032464250,,2032464250,45890735.77,,8064000,,18921223.8,,61379000,11202085.3,,61379085.3,.305435336,2.516439075,3.2314,1.265818111,.323576198
AFG,2012,,.553881984,9913738.5,2079786013,,2079786013,-12267982.47,,9399000,,14627845.4,,50464000,6263170.5,,50464170.5,.39970307,4.564201588,4.3867,1.582773621,.598756026
AFG,2013,,1.551485954,11680274.6,2106231492,,2106231492,52773544,,3728000,,-12598376.9,,32476000,7970699.4,,32475639.4,.737092467,6.682899103,4.0923,1.452933536,1.583228145
AFG,2014,,1.875260847,21248292.7,2020951889,,2020951889,-12226456,,-6130000,,-19466483.6,,11501000,12476177.1,,19638377.1,.9758232610000001,7.994322603,6.8807,2.312188367,1.938177801
AFG,2015,,2.805853963,27416416.2,2008954793,19000000,1989954793,-24463958,,-7757000,,-20294302.7,,-8410000,1955976.2,-5130000,7349442.9,1.608672112,16.8868553,11.0823,4.125012961,3.299608352
AFG,2016,,3.735882022,30269882.9,1964505965,15000000,1949505965,-3823529,,-7621000,,-14692918.6,,-9416000,-1912359.1,-4050000,-11077647.1,2.200084701,25.77018897,13.6576,4.869042942,4.333403208
AFG,2017,,3.548647692,30597878.7,1997566649,16000000,1981566649,0,,-7741000,,-8348165.6,,-19137000,-1978312.3,-4320000,-19288779,2.10666126,32.3295837,17.0628,5.799058814,4.353572015
AFG,2018,,2.595222694,32675060.7,1970427924,21543000,1948884924,0,,-7791000,,-3653357.7,,-15409000,2620209.1,-5817000,-8379324.2,1.720730594,22.84135961,16.1916,5.285156637,3.323800002
AFG,2019,,2.390422054,32780041.6,1964900688,21293000,1943607688,450000,,-7675000,,3896346.9,,-20149000,-2507434.3,-5749000,3301566.2,1.754286738,22.46971946,15.7742,4.94091559,2.974238093
AFG,2020,,2.244082158,28700402.1,1976197755,17748000,1958449755,0,,-7795000,,329160873.4,,-20692000,-2849348.3,-4792000,-21192348.3,1.671828968,25.34701861,14.3132,4.463395175,2.673975013
AFG,2021,,,19234000,1925714305,17748000,1907966305,-450000,,-6179000,,142479369.4,,-14054000,,,-14054000,,,12.5075,,
AFG,2022,,,12017000,1877151115,17748000,1859403115,-3862459,,-9041000,,-5018449,,-9041000,,,-9041000,,,11.6108,,
AFG,2023,,,13220000,1874433293,17748000,1856685293,0,,-8537000,,-4202254.6,,-10229000,0,,-10229000,,,12.4462,,
AFG,2024,,,,,,,,,,,,,,,,,,,,,
AGO,1960,,,,,,,,,,,,,,,,,,,,,
AGO,1961,,,,,,,,,,,,,,,,,,,,,
AGO,1962,,,,,,,,,,,,,,,,,,,,,
AGO,1963,,,,,,,,,,,,,,,,,,,,,
AGO,1964,,,,,,,,,,,,,,,,,,,,,
AGO,1965,,,,,,,,,,,,,,,,,,,,,
AGO,1966,,,,,,,,,,,,,,,,,,,,,
AGO,1967,,,,,,,,,,,,,,,,,,,,,
AGO,1968,,,,,,,,,,,,,,,,,,,,,
AGO,1969,,,,,,,,,,,,,,,,,,,,,
AGO,1970,,,,,,,,,,,,,,,,,,,,,
AGO,1971,,,,,,,,,,,,,,,,,,,,,
AGO,1972,,,,,,,,,,,,,,,,,,,,,
AGO,1973,,,,,,,,,,,,,,,,,,,,,
AGO,1974,,,,,,,,,,,,,,,,,,,,,
AGO,1975,,,,,,,,,,,,,,,,,,,,,
AGO,1976,,,,,,,,,,,,,,,,,,,,,
AGO,1977,,,,,,,,,,,,,,,,,,,,,
AGO,1978,,,,,,,,,,,,,,,,,,,,,
AGO,1979,,,,,,,,,,,,,,,,,,,,,
AGO,1980,,,,,,,,,,,,,,,,,,,,,
AGO,1981,,,,,,,,,,,,,,,,,,,,,
AGO,1982,,,,,,,,,,,,,,,,,,,,,
AGO,1983,,,,,,,,,,,,,,,,,,,,,
AGO,1984,,,,,,,,,,,,,,,,,,,,,
AGO,1985,,,,,,,,,,,,,,,,,,,,,
AGO,1986,,,,,,,,,,,,,,,,,,,,,
AGO,1987,,,,,,,,,,,,,,,,,,,,,
AGO,1988,,,,,,,,,,,,,,,,,,,,,
AGO,1989,337784000,7.627060009,241320178.7,6676170080,,6676170080,0,,,,,230747.4,3792000,-1016000,,120370242.5,7.627060009,19.36182005,8.4048,,8.403292626000001
AGO,1990,566487000,7.065059828,282814344.9,7603459883,,7603459883,0,,,,,-2236037.3,745000,-1468000,,112642489.1,7.065059828,24.69238342,11.5042,,8.142251934000001
AGO,1991,18208000,9.228749384,335520412.6,7702671839,,7702671839,0,,,,,20054695.1,35634000,588000,,76437769.09999999,9.228749384,35.69349267,14.418,,10.68105437
AGO,1992,454620000,4.79205458,191267718.4,8130429818,,8130429818,0,,5729000,,,13170526.8,20946000,1533977.4,,48092626.5,4.79205458,48.32393827,19.1742,,6.149990778
AGO,1993,610027000,2.934416268,88548945.3,8691068179,,8691068179,0,,9674000,,,3682286.9,13992000,,,12472205.5,2.934416268,62.3116536,17.7868,,5.121584879
AGO,1994,222656000,6.419671608,204132717.8,9122081833,,9122081833,0,,33325000,,,-448235.6,32877000,,,40745600.3,6.419671608,68.26448064,19.2218,,8.149340141
AGO,1995,116613000,10.77014224,414832491.6,9544234898,,9544234898,0,,30313000,,,-1841926.3,28471000,,,98127501.5,10.77014224,50.82984779,17.0213,857.4260168,12.13954113
AGO,1996,101964000,17.52171778,947223887.7,9377299506,,9377299506,0,,37752000,,,,37752000,,,21711645,17.52171778,21.61523156,11.0804,210.2820933,18.42858069
AGO,1997,386502000,18.34612156,964534498.9,8681585483,,8681585483,0,,27887000,,,,27315000,-571562.5,,-12699697.7,18.34612156,24.09330547,12.7327,322.7114822,19.22773102
AGO,1998,-141018000,40.19841082,1487007553,9099557193,,9099557193,0,,35764000,,,658037.1,36422000,,,-353353702.4,40.19841082,45.53775758,15.6204,832.0970733,41.41587311
AGO,1999,38973000,26.20992932,1383536131,8713044776,,8713044776,0,,38839000,,,0,37501000,-1338000,,-366037000,25.93976229,29.7261732,14.8548,322.6474207,27.04819205
AGO,2000,-251024000,20.61687532,1679565381,8084844148,,8084844148,0,,23710000,,,-23635250.8,-3785000,-2357000,,-234460560.5,20.42680424,16.08924624,13.5496,110.4074517,20.92943765
AGO,2001,864000,32.79305842,2208991179,6982714292,,6982714292,0,,10836000,,,-1503687.2,6635000,-2643000,,-1021831323,32.67839946,21.46671394,16.5331,198.2746007,33.12332016
AGO,2002,-83589000,16.73922576,1424848885,7540350652,,7540350652,0,,17921000,,,-2644099.1,14943000,-67499.3,,-19786484.5,16.66027642,14.11918612,13.2418,321.5386502,16.95554
AGO,2003,485123000,15.24733349,1476277082,7634470054,,7634470054,0,,1276000,,,-2367975.1,3145000,4367000,,64047752.5,15.18566015,11.0522371,11.7881,169.4176106,15.31383543
AGO,2004,862797000,13.5688684,1867698095,8180879840,,8180879840,0,,12862000,,,-1637623.8,16109000,4278057.4,,37686480.1,13.50392507,8.649721834999999,12.2059,86.71602128000001,13.63032553
AGO,2005,1573210000,10.52126752,2545708456,9532119023,,9532119023,0,,25316000,,,-1597004.4,25665000,1788110.6,,-186214988.3,10.47100098,9.526369788,18.9244,72.44785632999999,10.75386882
AGO,2006,-1549735000,12.97511182,4329212396,7361981529,,7361981529,0,,12376000,,,-1612662.6,12533000,828396.3,,-736319920.3,12.92629507,6.367239912,21.5289,26.16841868,13.22435404
AGO,2007,1321080000,9.655876611,4362663228,9240475948,,9240475948,0,,3006000,,,-541942.2,3358000,658283.9,,542493994.5,9.624343510999999,5.007572808,19.008,20.27280723,9.917040085
AGO,2008,2785909000,2.443566814,1576610560,12784883280,,12784883280,0,,6146000,,,-411086.4,7969000,112212.9,,791958077.5,2.438094374,3.696917773,15.3285,13.37837786,2.527980975
AGO,2009,2629070000,8.495828080000001,3531791661,16897661332,3158155000,13739506332,0,,13472000,,353290188.3,-411842.8,15212000,576830.7,2758155000,800696007.7,8.493460775999999,6.234749073,12.7855,18.97354133,9.695520824000001
AGO,2010,4004434000,4.452162681,2289701494,20925636702,5263592000,15662044702,0,,-697000,,524249378.2,-408950,3137000,1194337.6,2105437000,69979476.40000001,4.438630495,8.854522862,17.0463,23.2113008,5.741132615
AGO,2011,6066927000,4.127596069,2801776447,27011965147,8772654000,18239311147,0,,7439000,,316000205.1,-358380.7,10661000,-983463.1,3509062000,76044442.5,4.105025295,8.881257063,17.479,22.41760567,5.745641331
AGO,2012,-501313000,6.015281898,4324730859,25729517680,5782766000,19946751680,0,,36275000,,131558705.7,,36938000,271032.1,-1494944000,694099401.1,5.995487287,12.05570438,24.0455,27.90647275,8.394214721000001
AGO,2013,3684109000,7.383719204,4921701568,30530038364,5375902000,25154136364,0,,46802000,,-261055390.6,,46502000,-1020808.7,-406864000,1053653058,6.992990171,16.11451304,26.1625,36.0037509,8.272542080999999
AGO,2014,5601000000,12.31337488,7061822764,37350309189,4848215000,32502094189,0,,40256000,,-500331177.8,625925708.2,670486000,-107058.3,-527687000,1579477530,11.48323707,12.45592913,16.6796,28.33641501,13.42875821
AGO,2015,1355324000,19.8323067,6512969284,42188952559,9337097000,32851855559,0,450000000,22214000,,-345491441,0,478825000,-507413.1,2992588000,706643653.7,18.82162657,17.48523437,12.4058,25.43249531,24.78530192
AGO,2016,8840060000,33.01813734,9330768353,52634305957,11604367000,41029938957,0,0,26255000,,-124367146.1,399238708.6,431742000,-849448,1133635000,533926285.3,32.57886506,15.37648202,7.6677,18.60372739,38.07564376
AGO,2017,7410000,22.73209935,8116508851,54648943562,12740755000,41908188562,0,14640000,40203000,,-29777434.9,121131604.5,184473000,-1030992,-568194000,11281081.3,22.64811138,10.34709552,6.3121,21.24358088,25.42922376
AGO,2018,-1651181000,22.09856212,9245089700,57585644409,10507168000,47078476409,0,31744000,-1092000,,1012461530,7107055.1,44316000,-1187102.4,-2233587000,1192468948,22.09768889,6.768426988,4.5827,18.37544901,28.53539749
AGO,2019,-1882212000,28.01481376,10026094201,57847556595,10250625000,47596931595,0,612571000,-12443000,,494642616.6,-19474826,585438000,-1310678.8,-256543000,-816101722.9,27.94905884,7.20131013,4.147,15.81469629,29.91606227
AGO,2020,-1273371000,32.4430869,6965388390,57062240074,9678662000,47383578074,0,118503000,-29820000,,1019307240,106473516.1,200941000,-1318672.3,-571962000,110430041.7,32.33664194,24.83977304,8.1806,38.82273893,36.2643592
AGO,2021,-1978253000,26.39864025,8922589753,55508015507,8862496000,46645519507,50000000,787455000,-36726000,,2006785792,-44526227.5,807396000,99252538.40000001,-816167000,561746231.1,26.21993424,13.6331238,7.0271,32.06585237,29.25091724
AGO,2022,-5723274000,17.46726862,8647116294,50669254279,2512602000,48156652279,-11111112,830026000,-51852000,,0,-38836103.6,729837000,-7716606.3,-6349894000,34132331.1,17.19207026,8.335647913000001,6.9361,30.70434386,30.38001976
AGO,2023,-3782837000,29.55953858,10625843348,46651516910,1436085000,45215431910,-38888888.9,700178000,-54507000,,-178873300.9,-37396063.5,651069000,44989801,-1076517000,-424887141.9,28.30220894,13.13332017,8.6457,35.36624672,33.41822051
AGO,2024,,,,,,,,,,,,,,,,,,,,,
ALB,1960,,,,,,,,,,,,,,,,,,,,,
ALB,1961,,,,,,,,,,,,,,,,,,,,,
ALB,1962,,,,,,,,,,,,,,,,,,,,,
ALB,1963,,,,,,,,,,,,,,,,,,,,,
ALB,1964,,,,,,,,,,,,,,,,,,,,,
ALB,1965,,,,,,,,,,,,,,,,,,,,,
ALB,1966,,,,,,,,,,,,,,,,,,,,,
ALB,1967,,,,,,,,,,,,,,,,,,,,,
ALB,1968,,,,,,,,,,,,,,,,,,,,,
ALB,1969,,,,,,,,,,,,,,,,,,,,,
ALB,1970,,,,,,,,,,,,,,,,,,,,,
ALB,1971,,,,,,,,,,,,,,,,,,,,,
ALB,1972,,,,,,,,,,,,,,,,,,,,,
ALB,1973,,,,,,,,,,,,,,,,,,,,,
ALB,1974,,,,,,,,,,,,,,,,,,,,,
ALB,1975,,,,,,,,,,,,,,,,,,,,,
ALB,1976,,,,,,,,,,,,,,,,,,,,,
ALB,1977,,,,,,,,,,,,,,,,,,,,,
ALB,1978,,,,,,,,,,,,,,,,,,,,,
ALB,1979,,,,,,,,,,,,,,,,,,,,,
ALB,1980,,,,,,,,,,,,,,,,,,,,,
ALB,1981,,,,,,,,,,,,,,,,,,,,,
ALB,1982,,,,,,,,,,,,,,,,,,,,,
ALB,1983,,,,,,,,,,,,,,,,,,,,,
ALB,1984,,,,,,,,,,,,,,,,,,,,,
ALB,1985,,,,,,,,,,,,,,,,,,,,,
ALB,1986,,,,,,,,,,,,,,,,,,,,,
ALB,1987,,,,,,,,,,,,,,,,,,,,,
ALB,1988,,,,,,,,,,,,,,,,,,,,,
ALB,1989,,,,,,,,,,,,,,,,,,,,,
ALB,1990,,,,,,,,,,,,,,,,,,,,,
ALB,1991,,4.298871687,3568063.5,86200133.09999999,,86200133.09999999,0,,,,,,,,,19659270.7,4.298871687,512.3923171,83.14709999999999,,4.298871687
ALB,1992,,2.175260388,1917988.2,126853823.7,,126853823.7,0,,2065000,13646638.1,,,2065000,,,49400480.2,2.064572874,530.0828477,77.84220000000001,,2.175260388
ALB,1993,,3.176200157,7130952.4,178987293.2,,178987293.2,0,,25841000,4800797.4,11827444.4,,25841000,,,61434320.6,2.80635671,227.2271825,73.4554,346.757133,3.176200157
ALB,1994,,6.635781416,17198938.5,247576173.3,,247576173.3,0,,34989000,,22239931.2,187000,35976000,800000,,71508537.2,6.242808893,211.0134632,65.82850000000001,259.9979588,6.635781416
ALB,1995,-411000,1.974267368,4950294.4,332006725.9,,332006725.9,0,,43335000,-1184962.5,10711696.6,4634481.4,47969000,,,72187964.2,1.317618951,16.59206793,13.5849,23.49674162,2.772776817
ALB,1996,,4.363553044,10728376.8,406192837.9,,406192837.9,0,,32324000,-8279530,,4719869.7,39408000,2364040.3,,78722040.40000001,2.349622602,6.918326675,6.4206,9.768504052999999,4.659873675
ALB,1997,,13.74924885,13658225.6,413719706.2,,413719706.2,0,,18912000,4188818,,-47562.4,21016000,2151514.5,,46213092.9,8.494977982,29.71975047,9.2517,13.95438701,15.01619747
ALB,1998,,8.360304793999999,16696943.2,524241511.2,18000000,506241511.2,0,,63727000,-1165471.9,7984635.5,-734975.4,68231000,5239093.6,,79608387.5,7.480709319,15.63877509,5.5975,8.352226333999999,9.599104077
ALB,1999,,4.329758484,13849748.1,599745362.1,16000000,583745362.1,0,,80644000,,17669446,-1122090.7,110018000,30495617,-2000000,127910959.4,2.915736442,6.113418905,3.7561,5.55114862,5.394390063
ALB,2000,,4.089263216,16514240.6,936960202.7,16000000,920960202.7,0,,64357000,,11575587.9,-36944.2,98376000,34056274.1,,110698799.9,2.463341378,5.46923932,3.2677,5.673132967,4.478135531
ALB,2001,,4.104154198,18006135.1,982052069.1,12000000,970052069.1,-200000,,34260000,-5618157.2,4071349.8,1443674.5,52451000,16747167.2,-4000000,89246194.90000001,2.19399721,3.730822408,2.6525,3.973475918,4.824027477
ALB,2002,,6.472855883,37376310.9,1007162254,12345000,994817253.8,-200000,,78883000,-5714250.3,-2864246.9,3660546.4,102147000,19603597.5,1020000,129587618.8,4.583519639,3.562000466,2.4606,3.352228798,7.456607186
ALB,2003,,5.012846928,41247994.9,1241533684,9762000,1231771684,-200000,,59447000,,1677161.2,10886896.2,91851000,21517317.6,-1982000,108554278.4,3.960292039,14.3474228,9.638500000000001,14.39226294,5.499530472
ALB,2004,,4.743804093,57478154,1433417801,34019000,1399398801,29174100,,64294000,,2380112.1,11189751.3,95203000,19719073.8,24320000,110482308.8,3.954323448,.084413895,.0765,.088406127,5.230061152
ALB,2005,,4.441919093,63286184.4,1812885320,440731000,1372154320,23800000,,29570000,,2705009.5,14135992,66708000,23002107.2,385022000,78981601.3,3.750418224,9.187745259,7.2919,10.76957813,6.216615666
ALB,2006,,4.379980121,81924640.59999999,1968166790,393592000,1574574790,-15723845.61,,40880000,3582877.3,-7595405.5,13746333.7,91297000,36670301.3,-13252000,113833149.9,3.72099247,17.55357795,15.3539,21.31919982,8.229344982000001
ALB,2007,92235000,3.654507347,86467957.09999999,2292458695,507859000,1784599695,-9953520.529999999,5427000,42902000,3727723.9,-10674915.4,8261859.5,104551000,47959736.1,112812000,111200254.9,3.03734797,17.9381206,17.2138,23.62080195,6.169520391
ALB,2008,532288000,3.143364891,101465558.3,2955218087,661492000,2293726087,1232727,11736000,19932000,3849139.7,-11357728.5,26511465.7,143939000,85759589.2,134147000,159757367.9,2.70189356,30.61377349,27.0068,48.6360211,6.734375103
ALB,2009,426389000,4.827228884,151300057,3780315234,906257000,2874058234,-4285716,6874000,25548000,1878743.7,-12134709.7,27672098.7,150581000,90486778,124285000,176814778,4.40002374,19.79105504,14.7777,28.72754473,7.101659333
ALB,2010,61152000,6.835376872,240439315.8,4564030111,1353899000,3210131111,0,3107000,15124000,-154119.2,-12123533.9,1922669.3,102567000,82413813.40000001,159286000,110710845.1,6.493023923,20.06923684,13.6698,29.25098032,10.27592781
ALB,2011,177866000,7.556356677,295849488.5,5275163003,1910112000,3365051003,50406730.2,27640000,12052000,-799421.7,-11247090.8,26628595.3,172671000,106350188.8,333621000,174170863.3,7.254519586,26.77176148,16.8377,44.176936,11.8316387
ALB,2012,123167000,7.967094896,292105201.7,5807545788,2259682000,3547863788,12142855.2,7760000,14198000,-1398452.7,-8897712.4,25868074.5,190743000,142916839.6,241153000,209516196.2,7.691976539,38.70656906,19.9051,56.53735071,14.28688513
ALB,2013,276462000,5.062742366,195550441.2,6805919648,3049929000,3755990648,-8359572,4826000,-4685000,-2004494.5,-8352313.6,-6369111,114838000,121066508.2,302633000,127869994.3,4.803507422,42.84878619,20.173,62.89924532,13.52156352
ALB,2014,-167506000,6.327970114,255135298.7,6486468487,2821407000,3665061487,12593971,232490000,-5645000,69416781.40000001,-6660546.3,9862635.300000001,254712000,18004691.5,-170234000,286208605.3,6.106223636,44.87793287,22.028,70.35554105,17.53769454
ALB,2015,179946000,16.95629093,589275619.5,6410019822,2565903000,3844116822,-2781274,21426000,-24000000,104318732.3,-4064457,-6988157.7,-19653000,-10090901.8,-208073000,12953663.1,16.74293675,50.9530551,21.2304,57.13897469,33.5289041
ALB,2016,-55566000,7.237128919,274921372,6259506980,2498862000,3760644980,-53349848,34240000,-31905000,158106646.5,-2200462.6,-20320147.4,-11472000,6513011.5,-51572000,2589827.8,7.062997426,48.02865663,21.9523,60.13870421,15.2352425
ALB,2017,83069000,6.824312664,305147630.5,7163385892,2828237000,4335148892,-2239120,262687000,-36640000,78166286.7,-1519865.4,-23697221.8,239963000,37613312.6,169749000,243053464.6,6.626435355,46.66701436,21.9261,59.88485167,11.14287544
ALB,2018,-130129000,13.13420815,673158179.4,8265816997,3931727000,4334089997,-6240413,81535000,-41986000,-6275845.5,-862362.3,109473960.6,148514000,-509388.2,-29408000,137378745.5,12.82841006,17.43100854,9.477600000000001,23.49199685,20.67611249
ALB,2019,6513000,7.329408009,358393362,7976218636,3816492000,4159726636,-3948664,90180000,-46143000,-19734582.4,-168565.4,-18664232.6,1166000,-24206946.1,41315000,-742329.3,6.771818683,16.0671743,9.168799999999999,22.59350634,11.60002195
ALB,2020,-117647000,17.70181813,633299810.3,8886496483,3990178000,4896318483,0,52387000,-48461000,155446791.9,,94233459.8,70750000,-27409260.4,-127481000,69267160.7,16.46238186,25.05124003,9.1981,20.00481112,29.73277371
ALB,2021,-45851000,8.947119435999999,470657293.6,9094400773,3791631000,5302769773,-4436331,115172000,-50715000,-63340467.6,,-16864920.4,221640000,-38937852.3,-25607000,335560731.7,7.740397448,20.16938864,11.0939,21.7657768,14.57195681
ALB,2022,53202000,6.022717817,383432084.3,8504934929,3645505000,4859429929,-3797993,14444000,-48753000,-65891565.9,0,27894409.1,8691000,15105566.1,70337000,68030213,4.991050849,16.69912213,12.3115,24.35964817,9.185378669
ALB,2023,253336000,6.000117115,457514257.8,9585649421,4032196000,5553453421,31783087.82,115447000,-45852000,-112142832.5,,-24019522,5952000,-39623166.3,293868000,59489550,4.606078169,12.6205327,11.0311,19.41890752,8.544828040000001
ALB,2024,,,,,,,,,,,,,,,,,,,,,
AND,1960,,,,,,,,,,,,,,,,,,,,,
AND,1961,,,,,,,,,,,,,,,,,,,,,
AND,1962,,,,,,,,,,,,,,,,,,,,,
AND,1963,,,,,,,,,,,,,,,,,,,,,
AND,1964,,,,,,,,,,,,,,,,,,,,,
AND,1965,,,,,,,,,,,,,,,,,,,,,
AND,1966,,,,,,,,,,,,,,,,,,,,,
AND,1967,,,,,,,,,,,,,,,,,,,,,
AND,1968,,,,,,,,,,,,,,,,,,,,,
AND,1969,,,,,,,,,,,,,,,,,,,,,
AND,1970,,,,,,,,,,,,,,,,,,,,,
AND,1971,,,,,,,,,,,,,,,,,,,,,
AND,1972,,,,,,,,,,,,,,,,,,,,,
AND,1973,,,,,,,,,,,,,,,,,,,,,
AND,1974,,,,,,,,,,,,,,,,,,,,,
AND,1975,,,,,,,,,,,,,,,,,,,,,
AND,1976,,,,,,,,,,,,,,,,,,,,,
AND,1977,,,,,,,,,,,,,,,,,,,,,
AND,1978,,,,,,,,,,,,,,,,,,,,,
AND,1979,,,,,,,,,,,,,,,,,,,,,
AND,1980,,,,,,,,,,,,,,,,,,,,,
AND,1981,,,,,,,,,,,,,,,,,,,,,
AND,1982,,,,,,,,,,,,,,,,,,,,,
AND,1983,,,,,,,,,,,,,,,,,,,,,
AND,1984,,,,,,,,,,,,,,,,,,,,,
AND,1985,,,,,,,,,,,,,,,,,,,,,
AND,1986,,,,,,,,,,,,,,,,,,,,,
AND,1987,,,,,,,,,,,,,,,,,,,,,
AND,1988,,,,,,,,,,,,,,,,,,,,,
AND,1989,,,,,,,,,,,,,,,,,,,,,
AND,1990,,,,,,,,,,,,,,,,,,,,,
AND,1991,,,,,,,,,,,,,,,,,,,,,
AND,1992,,,,,,,,,,,,,,,,,,,,,
AND,1993,,,,,,,,,,,,,,,,,,,,,
AND,1994,,,,,,,,,,,,,,,,,,,,,
AND,1995,,,,,,,,,,,,,,,,,,,,,
AND,1996,,,,,,,,,,,,,,,,,,,,,
AND,1997,,,,,,,,,,,,,,,,,,,,,
AND,1998,,,,,,,,,,,,,,,,,,,,,
AND,1999,,,,,,,,,,,,,,,,,,,,,
AND,2000,,,,,,,,,,,,,,,,,,,,,
AND,2001,,,,,,,,,,,,,,,,,,,,,
AND,2002,,,,,,,,,,,,,,,,,,,,,
AND,2003,,,,,,,,,,,,,,,,,,,,,
AND,2004,,,,,,,,,,,,,,,,,,,,,
AND,2005,,,,,,,,,,,,,,,,,,,,,
AND,2006,,,,,,,,,,,,,,,,,,,,,
AND,2007,,,,,,,,,,,,,,,,,,,,,
AND,2008,,,,,,,,,,,,,,,,,,,,,
AND,2009,,,,,,,,,,,,,,,,,,,,,
AND,2010,,,,,,,,,,,,,,,,,,,,,
AND,2011,,,,,,,,,,,,,,,,,,,,,
AND,2012,,,,,,,,,,,,,,,,,,,,,
AND,2013,,,,,,,,,,,,,,,,,,,,,
AND,2014,,,,,,,,,,,,,,,,,,,,,
AND,2015,,,,,,,,,,,,,,,,,,,,,
AND,2016,,,,,,,,,,,,,,,,,,,,,
AND,2017,,,,,,,,,,,,,,,,,,,,,
AND,2018,,,,,,,,,,,,,,,,,,,,,
AND,2019,,,,,,,,,,,,,,,,,,,,,
AND,2020,,,,,,,,,,,,,,,,,,,,,
AND,2021,,,,,,,,,,,,,,,,,,,,,
AND,2022,,,,,,,,,,,,,,,,,,,,,
AND,2023,,,,,,,,,,,,,,,,,,,,,
AND,2024,,,,,,,,,,,,,,,,,,,,,
ARE,1960,,,,,,,,,,,,,,,,,,,,,
ARE,1961,,,,,,,,,,,,,,,,,,,,,
ARE,1962,,,,,,,,,,,,,,,,,,,,,
ARE,1963,,,,,,,,,,,,,,,,,,,,,
ARE,1964,,,,,,,,,,,,,,,,,,,,,
ARE,1965,,,,,,,,,,,,,,,,,,,,,
ARE,1966,,,,,,,,,,,,,,,,,,,,,
ARE,1967,,,,,,,,,,,,,,,,,,,,,
ARE,1968,,,,,,,,,,,,,,,,,,,,,
ARE,1969,,,,,,,,,,,,,,,,,,,,,
ARE,1970,,,,,,,,,,,,,,,,,,,,,
ARE,1971,,,,,,,,,,,,,,,,,,,,,
ARE,1972,,,,,,,,,,,,,,,,,,,,,
ARE,1973,,,,,,,,,,,,,,,,,,,,,
ARE,1974,,,,,,,,,,,,,,,,,,,,,
ARE,1975,,,,,,,,,,,,,,,,,,,,,
ARE,1976,,,,,,,,,,,,,,,,,,,,,
ARE,1977,,,,,,,,,,,,,,,,,,,,,
ARE,1978,,,,,,,,,,,,,,,,,,,,,
ARE,1979,,,,,,,,,,,,,,,,,,,,,
ARE,1980,,,,,,,,,,,,,,,,,,,,,
ARE,1981,,,,,,,,,,,,,,,,,,,,,
ARE,1982,,,,,,,,,,,,,,,,,,,,,
ARE,1983,,,,,,,,,,,,,,,,,,,,,
ARE,1984,,,,,,,,,,,,,,,,,,,,,
ARE,1985,,,,,,,,,,,,,,,,,,,,,
ARE,1986,,,,,,,,,,,,,,,,,,,,,
ARE,1987,,,,,,,,,,,,,,,,,,,,,
ARE,1988,,,,,,,,,,,,,,,,,,,,,
ARE,1989,,,,,,,,,,,,,,,,,,,,,
ARE,1990,,,,,,,,,,,,,,,,,,,,,
ARE,1991,,,,,,,,,,,,,,,,,,,,,
ARE,1992,,,,,,,,,,,,,,,,,,,,,
ARE,1993,,,,,,,,,,,,,,,,,,,,,
ARE,1994,,,,,,,,,,,,,,,,,,,,,
ARE,1995,,,,,,,,,,,,,,,,,,,,,
ARE,1996,,,,,,,,,,,,,,,,,,,,,
ARE,1997,,,,,,,,,,,,,,,,,,,,,
ARE,1998,,,,,,,,,,,,,,,,,,,,,
ARE,1999,,,,,,,,,,,,,,,,,,,,,
ARE,2000,,,,,,,,,,,,,,,,,,,,,
ARE,2001,,,,,,,,,,,,,,,,,,,,,
ARE,2002,,,,,,,,,,,,,,,,,,,,,
ARE,2003,,,,,,,,,,,,,,,,,,,,,
ARE,2004,,,,,,,,,,,,,,,,,,,,,
ARE,2005,,,,,,,,,,,,,,,,,,,,,
ARE,2006,,,,,,,,,,,,,,,,,,,,,
ARE,2007,,,,,,,,,,,,,,,,,,,,,
ARE,2008,,,,,,,,,,,,,,,,,,,,,
ARE,2009,,,,,,,,,,,,,,,,,,,,,
ARE,2010,,,,,,,,,,,,,,,,,,,,,
ARE,2011,,,,,,,,,,,,,,,,,,,,,
ARE,2012,,,,,,,,,,,,,,,,,,,,,
ARE,2013,,,,,,,,,,,,,,,,,,,,,
ARE,2014,,,,,,,,,,,,,,,,,,,,,
ARE,2015,,,,,,,,,,,,,,,,,,,,,
ARE,2016,,,,,,,,,,,,,,,,,,,,,
ARE,2017,,,,,,,,,,,,,,,,,,,,,
ARE,2018,,,,,,,,,,,,,,,,,,,,,
ARE,2019,,,,,,,,,,,,,,,,,,,,,
ARE,2020,,,,,,,,,,,,,,,,,,,,,
ARE,2021,,,,,,,,,,,,,,,,,,,,,
ARE,2022,,,,,,,,,,,,,,,,,,,,,
ARE,2023,,,,,,,,,,,,,,,,,,,,,
ARE,2024,,,,,,,,,,,,,,,,,,,,,
ARG,1960,,,,,,,,,,,,,,,,,,,,,
ARG,1961,,,,,,,,,,,,,,,,,,,,,
ARG,1962,,,,,,,,,,,,,,,,,,,,,
ARG,1963,,,,,,,,,,,,,,,,,,,,,
ARG,1964,,,,,,,,,,,,,,,,,,,,,
ARG,1965,,,,,,,,,,,,,,,,,,,,,
ARG,1966,,,,,,,,,,,,,,,,,,,,,
ARG,1967,,,,,,,,,,,,,,,,,,,,,
ARG,1968,,,,,,,,,,,,,,,,,,,,,
ARG,1969,,,,,,,,,,,,,,,,,,,,,
ARG,1970,-16253000,,472423169.7,5254191434,3291000000,1963191434,0,27096000,,,,21122000,62220000,,-4000000,66846961.1,,,10.843,93.72409249,
ARG,1971,133133000,,442763471.6,5666903965,3410000000,2256903965,0,37342000,,,5255851,26933000,85024000,,119000000,77354871.2,,,10.8122,225.7532713,
ARG,1972,191899000,,487413787.2,5959891468,3461000000,2498891468,0,37455000,,,308338800,-1837000,54985000,,51000000,46928481.3,,,10.8068,130.1424262,
ARG,1973,311441000,,678452864.9,6370707751,3432000000,2938707751,0,46030000,,,0,35080000,116755000,,-28000000,163324944.5,,,10.7666,49.71026846,
ARG,1974,140913000,,810832252.6,6881164058,3460000000,3421164058,0,65252000,,,-132294250,35489000,117965000,,28000000,211530890.9,,,10.7584,44.40141356,
ARG,1975,-41974000,,806543586.5,6759795690,3457000000,3302795690,0,1301000,,,244537497,47615000,59892000,,-3000000,67103035.1,,,10.7446,100.0913972,
ARG,1976,898917000,20.92861747,889630565.4,7952292885,3298000000,4654292885,0,1269000,,,237258997.5,51814000,66357000,,-159000000,85820322.59999999,18.96462514,21.74376466,10.735,51.42901508,34.90005213
ARG,1977,444920000,17.95667008,1062465123,8533271831,3267000000,5266271831,0,361000,,,-120365306.8,50228000,63677000,,-31000000,49884145.5,15.7682565,40.42742654,23.3304,70.86474635,27.77857569
ARG,1978,703565000,33.90561631,2138295837,10079657038,3102000000,6977657038,0,8877000,,,-508158256.9,139919000,158355000,,-165000000,337705517.7,27.2881041,43.7468096,25.3781,57.77538598,42.53629522
ARG,1979,4399808000,15.02461426,1489840750,14265835027,5438800000,8827035027,0,15251000,,,0,68911000,97333000,,2336800000,227936916,15.02461426,69.69544171,32.6347,59.44176301,23.01069736
ARG,1980,2839236000,18.44116391,2065779181,16939063713,6593000000,10346063713,0,36691000,,,0,14076000,24668000,,1162400000,-3932769.3,18.44116391,92.69237636,38.0031,111.6884205,38.03766453
ARG,1981,6349866000,18.41337475,2173698890,22888128188,12166000000,10722128188,0,73689000,,,0,91819000,170193000,,5581600000,76043147.8,18.41337475,109.4564591,36.0835,258.1052673,45.84497153
ARG,1982,2351032000,23.99849932,2341053608,27266004262,11227000000,16039004262,0,26275000,,,0,95533000,120076000,,2020000000,95131112.59999999,23.99849932,169.3593029,37.7303,366.8104904,50.17379404
ARG,1983,1168004000,25.76643559,2466844771,36021655633,10393000000,25628655633,0,29799000,,,1197930000,79049000,268910000,148541000,100000000,347093757,25.2646945,91.2888552,19.3315,313.8233822,69.8969149
ARG,1984,14436000,38.04388067,2601223907,37244139601,10340000000,26904139601,0,19432000,,,-886695420.5,116908000,123532000,-26677000,-29000000,-6622854.8,26.2511243,108.1666791,21.8468,413.7508202,63.61457398
ARG,1985,2501215000,43.83930541,4287866478,42113037698,4575000000,37538037698,0,75097000,,,999600000,155484000,216372000,-12186000,-182000000,223522504.6,41.51289067,65.16997044999999,13.1583,143.1408852,60.32686471
ARG,1986,623084000,66.62992692,4726480553,45537296224,4341000000,41196296224,0,273259000,,,-236587546.3,93144000,363650000,-12186000,-233500000,295573165.4,53.46092697,49.87979436,8.3697,99.60398748999999,83.13371608999999
ARG,1987,1465073000,65.30380565,4645376194,51336262859,1853000000,49483262859,0,661684000,,,622676396.9,57054000,700533000,-32186000,11676000,687603316.3,55.26262424,42.02944651,6.0164,94.61768402,74.53339166000001
ARG,1988,663620000,39.96111973,3778673674,49619537777,1800000000,47819537777,0,298902000,,,22529336.7,66119000,363461000,-12186000,10000000,453913580,33.26297248,50.33375801,9.688800000000001,110.8664316,44.50253698
ARG,1989,159852000,31.43049286,2792957639,53913884851,1800000000,52113884851,0,95645000,,,-479671285.5,344235000,427003000,-12187000,1000000,434154076.8,23.19346985,70.79110842,13.0071,264.9983165,36.42966243
ARG,1990,-1194855000,34.88742208,4835574393,48954009320,1800000000,47154009320,0,171676000,,,-260140594.7,177926000,327916000,-12187000,21000000,452384082.2,29.03551335,62.69002118,16.7106,167.7969849,37.13697174
ARG,1991,-378251000,31.02082275,3776348515,49643448833,1800000000,47843448833,0,109131000,,,-590229902.6,179215000,263698000,-12187000,265000000,751625366.8,23.40905352,83.96852898,20.6263,181.517238,33.77931519
ARG,1992,-204029000,24.25432445,3230342128,50115495736,2244000000,47871495736,0,-211373000,,,-74826905.7,-9790000,-235504000,-5520000,1164952000,96014679.90000001,18.20867173,91.18191706,23.5786,141.3142991,27.6728454
ARG,1993,31434000,26.68575225,4447111159,52508998174,6369425000,46139573174,0,1172817000,,,1228324090,807720000,1961734000,,3555000000,2659921231,23.6277759,45.97244145,13.3774,55.82605619,31.11179785
ARG,1994,1760080000,18.50405094,3613640784,63711932024,13123172000,50588760024,0,122676000,,,461485016.5,10431000,117214000,,3849368000,751372662.1,15.82447024,31.40207935,9.549200000000001,44.80903492,25.29154647
ARG,1995,754588000,20.50097768,5253002652,71287436682,16066427000,55221009682,0,682402000,,,1880911723,744760000,1422103000,,1085000000,1478395817,17.91316709,72.82168409000001,21.62,133.6392512,30.31306772
ARG,1996,407782000,23.41389178,6995043002,81355478339,19068321000,62287157339,0,794775000,,,365343154.1,224527000,1024384000,,1777696000,38866896.4,21.28183309,71.48904843,21.1411,119.1614017,39.44125888
ARG,1997,1955396000,27.6513301,9335375522,90395172333,23410631000,66984541333,0,497832000,,,-36828297.2,608332000,1103985000,,3760788000,-65318450.2,25.58271241,87.6601053,24.9416,142.6469482,44.17452429
ARG,1998,2656666000,28.16142196,9608478924,105106000000,27865489000,77240805073,0,1678358000,,,-656932665.4,1146767000,2830234000,,4406026000,1729937562,25.69824586,82.79312892,21.8763,124.5428326,51.80363267
ARG,1999,-44324000,37.50217366,11740160460,117584000000,27319463000,90264207976,0,1127878000,,,-823838946.1,911829000,2034355000,,-830839000,778062683.5,34.45648069,86.33141078,19.363,111.6319829,74.28485922
ARG,2000,-344658000,40.28760176,14081205317,116267000000,25909346000,90357824541,0,480708000,,,814695309.3,630126000,1093633000,,-1021019000,109811598.8,36.42595015,73.27332047,18.8756,112.6160436,64.28238673
ARG,2001,-3419432000,31.80569578,9994574595,118270000000,31628070000,86641606231,-46419100,653301000,,,9218265463,1203010000,1844272000,,-3989331000,1142646308,27.40139205,54.84328504,13.1044,137.4315501,49.58131454
ARG,2002,-88903000,15.59649276,3577304414,118713000000,28479000000,90234099463,-81717300,-928290000,,,-742773549.2,-505483000,-1447960000,,-72805000,-699563159.9,11.14644855,46.22331485,10.0018,141.3854127,16.59737549
ARG,2003,102377000,34.95635825,6833401361,125061000000,28386742000,96673899036,-94991900,-1005171000,,,-141715225.6,300349000,-720879000,,109215000,-750927207.8,18.25165495,59.79255099,13.6967,158.1254645,38.291271
ARG,2004,-822918000,19.90058032,2583475134,126866000000,23810501000,103055000000,-74774000,-61027000,,,-2034975076,-145173000,-217658000,,-1487001000,-225948849.6,5.942025726,61.06240609,15.8028,135.0420975,29.67587367
ARG,2005,-124295000,14.20544156,3178284456,85780082383,26360824000,59419258383,120659929.5,-566378000,,,-3571203529,61846000,-483564000,27949000,-259118000,-504172425.8,6.207099474,68.43317252999999,26.7917,124.7805947,19.72463126
ARG,2006,812831000,23.08477952,4004566751,90191801800,26810522000,63381279800,27589392.64,-674600000,,,-9793289569,-87088000,-700503000,66992000,2409519000,-705803166.1,6.650653862,46.91746825,23.7556,88.22126441,31.51133056
ARG,2007,-135040000,6.912092183,5011131954,101114000000,30028062000,71086100933,-96736003.66,-531603000,,,,-9322000,-213585000,316780119.2,1500840000,-313889256.7,6.888440116,26.39391063,15.8923,41.60562969,12.11147111
ARG,2008,2730014000,6.739710473,5873587091,109822000000,38898788000,70923520108,140604377.2,-604636000,,,,-61177000,-267644000,397637526,721689000,-359508103.3,6.735099597,22.29080346,14.982,41.90868098,11.00062093
ARG,2009,-4276454000,10.92174329,7623385201,111243000000,35445519000,75796982671,61109778.95,235604000,,,,914168000,1420134000,283587896.9,-1768159000,1702669174,10.91131826,27.60371523,14.4252,40.17294915,21.17258559
ARG,2010,-2658107000,10.42447365,8734949204,107119000000,37934276170,69184226966,-52622037.41,46158000,,,,609286000,784131000,136654634.1,-1354785000,557089438.5,10.41260673,19.5653382,12.9601,31.43800412,18.64262334
ARG,2011,-163425000,7.757750171,7820481978,114038000000,42499350630,71538394037,-68954134.94,210658000,,,,389455000,973456000,385124018.1,1451304000,693175591,7.754371859,25.52795234,18.0184,55.64713315,15.65506279
ARG,2012,-528145000,6.320960295,6104249742,111521000000,40943426000,70577681118,-85645218.59,67999000,,,,115208000,380840000,220042990.4,-1017427000,206726533,6.319999251,26.14441866,18.0528,58.42202788,14.06681403
ARG,2013,473750000,8.063908497,7417613254,110423000000,40536224000,69886340561,-139269858,490702000,,,,248249000,1065518000,345273376.6,-11443000,1470543314,8.059572277999999,39.8670861,24.4244,120.1666979,17.13745621
ARG,2014,1057724000,11.97881242,10108412453,119563000000,40703142000,78859942930,-115738470,-93524000,,,,330297000,461070000,232322278.3,1086855000,6204671408,11.97699388,40.15605591,21.6721,107.8964103,20.16972536
ARG,2015,1885540000,15.90500546,11510933756,125739000000,42130407000,83608702758,46749325,-142008000,,,,-129552000,-78025000,173014766.8,3464936000,8891086242,15.90304929,82.11199508999999,31.6185,232.8876502,24.73364286
ARG,2016,4535224000,24.76570501,18376036820,147985000000,31303350000,116682000000,159001132,198157000,,,,220013000,462198000,52470447.3,8235594000,-1185697525,24.76250752,55.27176552,21.3943,106.7739171,35.88346377
ARG,2017,6850210000,38.69759726,30254108651,178300000000,39295205000,139005000000,303379795,238743000,,,,375912000,1065617000,422854207.7,13057036000,2024888614,38.69568169,70.99432926,23.4518,100.3476584,51.73025476
ARG,2018,3893163000,32.29646105,26782796260,198034000000,43531058000,154503000000,345604581,556697000,,,28623222038,542719000,1669175000,521231784,5770892000,9020628132,32.10594891,81.23976155,22.8392,102.3387298,51.54858455
ARG,2019,2015750000,34.37816633,28409429886,185414000000,45424853000,139989000000,47651592,249406000,,,16165694452,316757000,879669000,240319370.6,3065653000,-147715683.9,32.92220534,77.66137522,22.3868,149.3208144,51.09950748
ARG,2020,-1942986000,17.58513374,10684151070,183994000000,46042357000,137952000000,-35891215,593717000,,,0,723876000,1426269000,23143554.3,-2655533000,2223415683,15.65614989,62.43447226,15.4666,108.1289807,43.09763198
ARG,2021,-1710033000,12.08716276,5762350017,174731000000,39527173000,135204000000,-144528237,796270000,,,-3779982686,659916000,1806483000,245799421,-2128022000,1799671974,6.394072537,48.79456777,16.4843,110.8950191,31.02451298
ARG,2022,-339765000,26.416234,9605939910,164954000000,37017961000,127936000000,-164032792,692400000,,,6631907083,1534025000,2685162000,310199615.9,-2015976000,905248346.4,8.993596216,46.49120903,18.6049,110.8522545,33.25858751
ARG,2023,983814000,34.82711751,10070862844,163605000000,37215527000,126390000000,-139947843.7,684952000,,,-5073959569,864366000,3506058000,1987351278,-283646000,2696815331,11.28285752,61.5627423,20.6448,238.0779544,51.35394483
ARG,2024,,,,,,,,,,,,,,,,,,,,,
ARM,1960,,,,,,,,,,,,,,,,,,,,,
ARM,1961,,,,,,,,,,,,,,,,,,,,,
ARM,1962,,,,,,,,,,,,,,,,,,,,,
ARM,1963,,,,,,,,,,,,,,,,,,,,,
ARM,1964,,,,,,,,,,,,,,,,,,,,,
ARM,1965,,,,,,,,,,,,,,,,,,,,,
ARM,1966,,,,,,,,,,,,,,,,,,,,,
ARM,1967,,,,,,,,,,,,,,,,,,,,,
ARM,1968,,,,,,,,,,,,,,,,,,,,,
ARM,1969,,,,,,,,,,,,,,,,,,,,,
ARM,1970,,,,,,,,,,,,,,,,,,,,,
ARM,1971,,,,,,,,,,,,,,,,,,,,,
ARM,1972,,,,,,,,,,,,,,,,,,,,,
ARM,1973,,,,,,,,,,,,,,,,,,,,,
ARM,1974,,,,,,,,,,,,,,,,,,,,,
ARM,1975,,,,,,,,,,,,,,,,,,,,,
ARM,1976,,,,,,,,,,,,,,,,,,,,,
ARM,1977,,,,,,,,,,,,,,,,,,,,,
ARM,1978,,,,,,,,,,,,,,,,,,,,,
ARM,1979,,,,,,,,,,,,,,,,,,,,,
ARM,1980,,,,,,,,,,,,,,,,,,,,,
ARM,1981,,,,,,,,,,,,,,,,,,,,,
ARM,1982,,,,,,,,,,,,,,,,,,,,,
ARM,1983,,,,,,,,,,,,,,,,,,,,,
ARM,1984,,,,,,,,,,,,,,,,,,,,,
ARM,1985,,,,,,,,,,,,,,,,,,,,,
ARM,1986,,,,,,,,,,,,,,,,,,,,,
ARM,1987,,,,,,,,,,,,,,,,,,,,,
ARM,1988,,,,,,,,,,,,,,,,,,,,,
ARM,1989,,,,,,,,,,,,,,,,,,,,,
ARM,1990,,,,,,,,,,,,,,,,,,,,,
ARM,1991,,,,,,,,,,,,,,,,,,,,,
ARM,1992,,,,,,,,,,,,,,,,,,,,,
ARM,1993,,1.124665072,1950956.5,133902025.2,,133902025.2,0,506000,,,,2574000,63364000,60283856.2,,86756016.2,,,.0149,.147200961,1.153488499
ARM,1994,,1.938770457,4440172.1,188626997,,188626997,0,1017000,5458000,,24166055.3,23743000,37320000,7101631,,60542031,1.938770457,.465716706,.4976,2.953866061,1.938770457
ARM,1995,,3.152093674,9551548.9,298280275,,298280275,0,3351000,88498000,,46086088.6,10517000,102366000,,,99549000,2.669887109,.5981813499999999,.5773,1.924767059,3.152093674
ARM,1996,,9.521672132999999,39460528.8,402669288,,402669288,0,5448000,87010000,,48997744.7,28246000,111871000,-8832798.1,,113318881.3,8.812297146000001,.312647001,.2689,.83233418,9.535741248000001
ARM,1997,,4.919658722,20044424.2,484427779.7,,484427779.7,0,928000,76490000,,23221519.1,-700000,75962000,-756136.7,,100480335.4,4.228221516,4.640735619,3.4456,9.196326721,5.055294768
ARM,1998,5000000,12.89095362,55570525.9,568631826.8,,568631826.8,0,-169000,42883000,,50713629,-5780000,19756000,-17178408.3,,67117500.09999999,12.02321455,9.772961339,5.6164,15.40781074,13.28040083
ARM,1999,,12.65987409,39991503.9,651398849.6,,651398849.6,0,-380000,65660000,,15536313.7,-3961000,66120000,4800718,,69335073.59999999,8.342533977,10.26349678,4.8112,16.2102423,13.17304893
ARM,2000,,8.232738613,22253593.5,683904100.9,,683904100.9,0,-392000,54354000,,-15766066.8,-5198000,50584000,1820226.9,,49547376.8,3.989138767,7.962469292,4.3615,14.1371588,8.66941155
ARM,2001,,8.188532565999999,40583655.9,1085261422,360880000,724381421.5,0,-419000,55026000,,3420799.6,-4161000,62967000,12520723.1,,59000636.3,6.096199494,6.304747058,2.9758,12.73295696,8.410848053
ARM,2002,-6636000,7.936348731,48354507.9,1185124047,358770000,826354046.8,0,-445000,66467000,,7687628.3,-6083000,50576000,-9363163.1,-2110000,63972056.1,5.469087745,24.88287765,12.794,51.0471244,9.347207894
ARM,2003,,8.798743259,71445022.8,1246743012,367650000,879093011.9,0,-513000,77386000,,1617012.8,-7645000,66029000,-3199034.4,8880000,44685103.4,6.225091782,35.20101165,20.2391,80.48176511,10.82454405
ARM,2004,,6.552186906,60361619.4,1343637801,381430000,962207800.5,3000000,-586000,77751000,,-6387473.9,-7844000,65271000,-4049609.9,13780000,43182047,3.992876411,27.1211963,19.4505,74.85045387,11.41085
ARM,2005,,3.308082584,24942903.4,1369816168,445510000,924306167.7,1000000,-646000,31387000,,-24695215.4,-7939000,22398000,-404028.6,64080000,34363042.2,1.283266739,15.32383749,15.1206,44.48972615,7.319496412
ARM,2006,,2.755399749,26153280.3,1535980662,496140000,1039840662,2900000.32,-663000,57699000,,-21516391.9,-7939000,56739000,7642237.7,50630000,65832561,1.13578038,13.3262659,14.3467,28.62719071,6.732955291
ARM,2007,,1.905972001,26717318,2284348946,998650000,1285698946,8416667.300000001,-742000,85795000,,-13583611.7,-6891000,95387000,17225158.8,502510000,190170994.2,.9134407369999999,17.11632247,16.2442,30.17538912,6.668341019
ARM,2008,,1.78614352,26096855.5,2821414337,1372510000,1448904337,811111.74,-855000,68791000,,-19645629.7,,79730000,3761851.2,373800000,149432612.9,.848159402,16.92564646,14.4161,37.01888649,11.98731802
ARM,2009,,2.938256757,44110810,3681144326,1302493000,2378651326,-3504275.09,48565000,128463000,,442314564.9,1275802.4,308838000,11404639.6,27711000,919748406,1.811456613,21.73083815,10.7228,26.4105519,17.40533245
ARM,2010,,2.742134515,58987181.4,4775157284,2215595000,2559562284,17713675.22,52360000,20288000,,162903978.5,8746363.800000001,109522000,5863816.3,702841000,174455554.8,1.809554809,20.11628409,10.3967,35.14494913,29.73873671
ARM,2011,573425000,2.671091691,66398103.7,5544555451,2804624000,2739931451,20823675.22,44944000,31136000,,91389510.90000001,4209525.6,143637000,7960945.2,571066000,175410839.8,1.743762893,23.73294935,12.1942,46.7634719,24.58414664
ARM,2012,539368000,5.939677873,73455708.09999999,5887209707,2927712000,2959497707,34306214.9,85108000,46852000,,-52079724.7,1774565,210238000,5639027.2,529053000,240902850.2,1.821550889,20.88069122,11.0205,46.79587531,29.16675101
ARM,2013,821621000,19.49671486,578499598.5,6810904405,3495282000,3315622405,-2859825,75042000,37253000,,-190297799.5,29296791.2,180851000,18670512.9,817366000,-303922918.9,13.1048093,26.04823346,13.2457,51.06900705,46.34727581
ARM,2014,768241000,5.864514884,113233978,7077865019,3697562000,3380303019,-15464846,100021000,-3731000,,-113370612.1,17144020.5,220632000,28032561.2,761907000,236778100.6,2.498949248,20.04343771,10.6154,60.97720918,31.69962623
ARM,2015,-43257000,9.623222345,359817804.2,7631112273,3633134000,3997978273,-3352594,100044000,-7639000,,-8599020,9399907.699999999,384749000,95562667.2,-64428000,402707696.4,8.942616381000001,16.49386211,7.515,37.3826639,38.41423872
ARM,2016,158924000,5.306563024,195848137.2,8256235570,3784493000,4471742570,13491030,132414000,-8987000,,7788497.9,110642839.7,409764000,51785328.8,151359000,522497662,4.439872233,24.29357517,10.8731,48.61903714,33.09718576
ARM,2017,-193476000,5.244845023,230440788.2,8810119965,3582608000,5227511965,-15092431,32882000,-27654000,,-28812265,116779723.3,300564000,68137024.09999999,-201885000,577547564.5,4.245556384,16.37247418,8.6883,38.4020415,26.4117195
ARM,2018,187761000,6.379075444,299971188.1,9141409272,3770226000,5371183272,-9597254,49117000,-35408000,,-67723056.2,75844416.7,86699000,652774.3,187618000,208493730.4,5.139064819,19.42280244,10.5701,50.17983563,28.56214626
ARM,2019,490478000,12.37136169,756192156,9914909544,4262488000,5652421544,12737538,84820000,-53410000,,-72990183,66740328.8,86222000,-8973060.6,492262000,203775396.1,11.20976475,23.63848456,13.4175,55.95829999,30.72098228
ARM,2020,632388000,13.05443908,480352186.8,10813406233,5197031000,5616375233,17944898,18777000,-55537000,,246610499.7,1440878.3,-36019000,8383367.6,934543000,-84232124,11.16915065,37.26996185,12.2714,61.28282413,45.04986999
ARM,2021,333809000,8.422972328,390644812.2,11780711039,5534502000,6246209039,64495003,32303000,-68519000,,-66293592.4,12403092.6,-467000,20714913.3,337471000,116600244.2,7.088029545,27.6515933,10.8547,47.18398448,34.54660459
ARM,2022,73532000,4.299361411,418009843.9,11931469229,5611725000,6319744229,-37119882,5751000,-64042000,,59169520.7,114019578.5,44663000,-8733957,77223000,218767512.3,3.769841754,29.23828525,20.3501,78.84876602999999,17.95283852
ARM,2023,205389000,5.542318718,711517789.3,12062333251,5821264000,6241069251,-5289207.26,117744000,-66623000,,-93668921.09999999,14888264.5,118748000,33956161.2,209539000,56396283.4,4.6920594,20.48807898,19.6155,86.12301841999999,18.28947799
ARM,2024,,,,,,,,,,,,,,,,,,,,,
ASM,1960,,,,,,,,,,,,,,,,,,,,,
ASM,1961,,,,,,,,,,,,,,,,,,,,,
ASM,1962,,,,,,,,,,,,,,,,,,,,,
ASM,1963,,,,,,,,,,,,,,,,,,,,,
ASM,1964,,,,,,,,,,,,,,,,,,,,,
ASM,1965,,,,,,,,,,,,,,,,,,,,,
ASM,1966,,,,,,,,,,,,,,,,,,,,,
ASM,1967,,,,,,,,,,,,,,,,,,,,,
ASM,1968,,,,,,,,,,,,,,,,,,,,,
ASM,1969,,,,,,,,,,,,,,,,,,,,,
ASM,1970,,,,,,,,,,,,,,,,,,,,,
ASM,1971,,,,,,,,,,,,,,,,,,,,,
ASM,1972,,,,,,,,,,,,,,,,,,,,,
ASM,1973,,,,,,,,,,,,,,,,,,,,,
ASM,1974,,,,,,,,,,,,,,,,,,,,,
ASM,1975,,,,,,,,,,,,,,,,,,,,,
ASM,1976,,,,,,,,,,,,,,,,,,,,,
ASM,1977,,,,,,,,,,,,,,,,,,,,,
ASM,1978,,,,,,,,,,,,,,,,,,,,,
ASM,1979,,,,,,,,,,,,,,,,,,,,,
ASM,1980,,,,,,,,,,,,,,,,,,,,,
ASM,1981,,,,,,,,,,,,,,,,,,,,,
ASM,1982,,,,,,,,,,,,,,,,,,,,,
ASM,1983,,,,,,,,,,,,,,,,,,,,,
ASM,1984,,,,,,,,,,,,,,,,,,,,,
ASM,1985,,,,,,,,,,,,,,,,,,,,,
ASM,1986,,,,,,,,,,,,,,,,,,,,,
ASM,1987,,,,,,,,,,,,,,,,,,,,,
ASM,1988,,,,,,,,,,,,,,,,,,,,,
ASM,1989,,,,,,,,,,,,,,,,,,,,,
ASM,1990,,,,,,,,,,,,,,,,,,,,,
ASM,1991,,,,,,,,,,,,,,,,,,,,,
ASM,1992,,,,,,,,,,,,,,,,,,,,,
ASM,1993,,,,,,,,,,,,,,,,,,,,,
ASM,1994,,,,,,,,,,,,,,,,,,,,,
ASM,1995,,,,,,,,,,,,,,,,,,,,,
ASM,1996,,,,,,,,,,,,,,,,,,,,,
ASM,1997,,,,,,,,,,,,,,,,,,,,,
ASM,1998,,,,,,,,,,,,,,,,,,,,,
ASM,1999,,,,,,,,,,,,,,,,,,,,,
ASM,2000,,,,,,,,,,,,,,,,,,,,,
ASM,2001,,,,,,,,,,,,,,,,,,,,,
ASM,2002,,,,,,,,,,,,,,,,,,,,,
ASM,2003,,,,,,,,,,,,,,,,,,,,,
ASM,2004,,,,,,,,,,,,,,,,,,,,,
ASM,2005,,,,,,,,,,,,,,,,,,,,,
ASM,2006,,,,,,,,,,,,,,,,,,,,,
ASM,2007,,,,,,,,,,,,,,,,,,,,,
ASM,2008,,,,,,,,,,,,,,,,,,,,,
ASM,2009,,,,,,,,,,,,,,,,,,,,,
ASM,2010,,,,,,,,,,,,,,,,,,,,,
ASM,2011,,,,,,,,,,,,,,,,,,,,,
ASM,2012,,,,,,,,,,,,,,,,,,,,,
ASM,2013,,,,,,,,,,,,,,,,,,,,,
ASM,2014,,,,,,,,,,,,,,,,,,,,,
ASM,2015,,,,,,,,,,,,,,,,,,,,,
ASM,2016,,,,,,,,,,,,,,,,,,,,,
ASM,2017,,,,,,,,,,,,,,,,,,,,,
ASM,2018,,,,,,,,,,,,,,,,,,,,,
ASM,2019,,,,,,,,,,,,,,,,,,,,,
ASM,2020,,,,,,,,,,,,,,,,,,,,,
ASM,2021,,,,,,,,,,,,,,,,,,,,,
ASM,2022,,,,,,,,,,,,,,,,,,,,,
ASM,2023,,,,,,,,,,,,,,,,,,,,,
ASM,2024,,,,,,,,,,,,,,,,,,,,,
ATG,1960,,,,,,,,,,,,,,,,,,,,,
ATG,1961,,,,,,,,,,,,,,,,,,,,,
ATG,1962,,,,,,,,,,,,,,,,,,,,,
ATG,1963,,,,,,,,,,,,,,,,,,,,,
ATG,1964,,,,,,,,,,,,,,,,,,,,,
ATG,1965,,,,,,,,,,,,,,,,,,,,,
ATG,1966,,,,,,,,,,,,,,,,,,,,,
ATG,1967,,,,,,,,,,,,,,,,,,,,,
ATG,1968,,,,,,,,,,,,,,,,,,,,,
ATG,1969,,,,,,,,,,,,,,,,,,,,,
ATG,1970,,,,,,,,,,,,,,,,,,,,,
ATG,1971,,,,,,,,,,,,,,,,,,,,,
ATG,1972,,,,,,,,,,,,,,,,,,,,,
ATG,1973,,,,,,,,,,,,,,,,,,,,,
ATG,1974,,,,,,,,,,,,,,,,,,,,,
ATG,1975,,,,,,,,,,,,,,,,,,,,,
ATG,1976,,,,,,,,,,,,,,,,,,,,,
ATG,1977,,,,,,,,,,,,,,,,,,,,,
ATG,1978,,,,,,,,,,,,,,,,,,,,,
ATG,1979,,,,,,,,,,,,,,,,,,,,,
ATG,1980,,,,,,,,,,,,,,,,,,,,,
ATG,1981,,,,,,,,,,,,,,,,,,,,,
ATG,1982,,,,,,,,,,,,,,,,,,,,,
ATG,1983,,,,,,,,,,,,,,,,,,,,,
ATG,1984,,,,,,,,,,,,,,,,,,,,,
ATG,1985,,,,,,,,,,,,,,,,,,,,,
ATG,1986,,,,,,,,,,,,,,,,,,,,,
ATG,1987,,,,,,,,,,,,,,,,,,,,,
ATG,1988,,,,,,,,,,,,,,,,,,,,,
ATG,1989,,,,,,,,,,,,,,,,,,,,,
ATG,1990,,,,,,,,,,,,,,,,,,,,,
ATG,1991,,,,,,,,,,,,,,,,,,,,,
ATG,1992,,,,,,,,,,,,,,,,,,,,,
ATG,1993,,,,,,,,,,,,,,,,,,,,,
ATG,1994,,,,,,,,,,,,,,,,,,,,,
ATG,1995,,,,,,,,,,,,,,,,,,,,,
ATG,1996,,,,,,,,,,,,,,,,,,,,,
ATG,1997,,,,,,,,,,,,,,,,,,,,,
ATG,1998,,,,,,,,,,,,,,,,,,,,,
ATG,1999,,,,,,,,,,,,,,,,,,,,,
ATG,2000,,,,,,,,,,,,,,,,,,,,,
ATG,2001,,,,,,,,,,,,,,,,,,,,,
ATG,2002,,,,,,,,,,,,,,,,,,,,,
ATG,2003,,,,,,,,,,,,,,,,,,,,,
ATG,2004,,,,,,,,,,,,,,,,,,,,,
ATG,2005,,,,,,,,,,,,,,,,,,,,,
ATG,2006,,,,,,,,,,,,,,,,,,,,,
ATG,2007,,,,,,,,,,,,,,,,,,,,,
ATG,2008,,,,,,,,,,,,,,,,,,,,,
ATG,2009,,,,,,,,,,,,,,,,,,,,,
ATG,2010,,,,,,,,,,,,,,,,,,,,,
ATG,2011,,,,,,,,,,,,,,,,,,,,,
ATG,2012,,,,,,,,,,,,,,,,,,,,,
ATG,2013,,,,,,,,,,,,,,,,,,,,,
ATG,2014,,,,,,,,,,,,,,,,,,,,,
ATG,2015,,,,,,,,,,,,,,,,,,,,,
ATG,2016,,,,,,,,,,,,,,,,,,,,,
ATG,2017,,,,,,,,,,,,,,,,,,,,,
ATG,2018,,,,,,,,,,,,,,,,,,,,,
ATG,2019,,,,,,,,,,,,,,,,,,,,,
ATG,2020,,,,,,,,,,,,,,,,,,,,,
ATG,2021,,,,,,,,,,,,,,,,,,,,,
ATG,2022,,,,,,,,,,,,,,,,,,,,,
ATG,2023,,,,,,,,,,,,,,,,,,,,,
ATG,2024,,,,,,,,,,,,,,,,,,,,,
AUS,1960,,,,,,,,,,,,,,,,,,,,,
AUS,1961,,,,,,,,,,,,,,,,,,,,,
AUS,1962,,,,,,,,,,,,,,,,,,,,,
AUS,1963,,,,,,,,,,,,,,,,,,,,,
AUS,1964,,,,,,,,,,,,,,,,,,,,,
AUS,1965,,,,,,,,,,,,,,,,,,,,,
AUS,1966,,,,,,,,,,,,,,,,,,,,,
AUS,1967,,,,,,,,,,,,,,,,,,,,,
AUS,1968,,,,,,,,,,,,,,,,,,,,,
AUS,1969,,,,,,,,,,,,,,,,,,,,,
AUS,1970,,,,,,,,,,,,,,,,,,,,,
AUS,1971,,,,,,,,,,,,,,,,,,,,,
AUS,1972,,,,,,,,,,,,,,,,,,,,,
AUS,1973,,,,,,,,,,,,,,,,,,,,,
AUS,1974,,,,,,,,,,,,,,,,,,,,,
AUS,1975,,,,,,,,,,,,,,,,,,,,,
AUS,1976,,,,,,,,,,,,,,,,,,,,,
AUS,1977,,,,,,,,,,,,,,,,,,,,,
AUS,1978,,,,,,,,,,,,,,,,,,,,,
AUS,1979,,,,,,,,,,,,,,,,,,,,,
AUS,1980,,,,,,,,,,,,,,,,,,,,,
AUS,1981,,,,,,,,,,,,,,,,,,,,,
AUS,1982,,,,,,,,,,,,,,,,,,,,,
AUS,1983,,,,,,,,,,,,,,,,,,,,,
AUS,1984,,,,,,,,,,,,,,,,,,,,,
AUS,1985,,,,,,,,,,,,,,,,,,,,,
AUS,1986,,,,,,,,,,,,,,,,,,,,,
AUS,1987,,,,,,,,,,,,,,,,,,,,,
AUS,1988,,,,,,,,,,,,,,,,,,,,,
AUS,1989,,,,,,,,,,,,,,,,,,,,,
AUS,1990,,,,,,,,,,,,,,,,,,,,,
AUS,1991,,,,,,,,,,,,,,,,,,,,,
AUS,1992,,,,,,,,,,,,,,,,,,,,,
AUS,1993,,,,,,,,,,,,,,,,,,,,,
AUS,1994,,,,,,,,,,,,,,,,,,,,,
AUS,1995,,,,,,,,,,,,,,,,,,,,,
AUS,1996,,,,,,,,,,,,,,,,,,,,,
AUS,1997,,,,,,,,,,,,,,,,,,,,,
AUS,1998,,,,,,,,,,,,,,,,,,,,,
AUS,1999,,,,,,,,,,,,,,,,,,,,,
AUS,2000,,,,,,,,,,,,,,,,,,,,,
AUS,2001,,,,,,,,,,,,,,,,,,,,,
AUS,2002,,,,,,,,,,,,,,,,,,,,,
AUS,2003,,,,,,,,,,,,,,,,,,,,,
AUS,2004,,,,,,,,,,,,,,,,,,,,,
AUS,2005,,,,,,,,,,,,,,,,,,,,,
AUS,2006,,,,,,,,,,,,,,,,,,,,,
AUS,2007,,,,,,,,,,,,,,,,,,,,,
AUS,2008,,,,,,,,,,,,,,,,,,,,,
AUS,2009,,,,,,,,,,,,,,,,,,,,,
AUS,2010,,,,,,,,,,,,,,,,,,,,,
AUS,2011,,,,,,,,,,,,,,,,,,,,,
AUS,2012,,,,,,,,,,,,,,,,,,,,,
AUS,2013,,,,,,,,,,,,,,,,,,,,,
AUS,2014,,,,,,,,,,,,,,,,,,,,,
AUS,2015,,,,,,,,,,,,,,,,,,,,,
AUS,2016,,,,,,,,,,,,,,,,,,,,,
AUS,2017,,,,,,,,,,,,,,,,,,,,,
AUS,2018,,,,,,,,,,,,,,,,,,,,,
AUS,2019,,,,,,,,,,,,,,,,,,,,,
AUS,2020,,,,,,,,,,,,,,,,,,,,,
AUS,2021,,,,,,,,,,,,,,,,,,,,,
AUS,2022,,,,,,,,,,,,,,,,,,,,,
AUS,2023,,,,,,,,,,,,,,,,,,,,,
AUS,2024,,,,,,,,,,,,,,,,,,,,,
AUT,1960,,,,,,,,,,,,,,,,,,,,,
AUT,1961,,,,,,,,,,,,,,,,,,,,,
AUT,1962,,,,,,,,,,,,,,,,,,,,,
AUT,1963,,,,,,,,,,,,,,,,,,,,,
AUT,1964,,,,,,,,,,,,,,,,,,,,,
AUT,1965,,,,,,,,,,,,,,,,,,,,,
AUT,1966,,,,,,,,,,,,,,,,,,,,,
AUT,1967,,,,,,,,,,,,,,,,,,,,,
AUT,1968,,,,,,,,,,,,,,,,,,,,,
AUT,1969,,,,,,,,,,,,,,,,,,,,,
AUT,1970,,,,,,,,,,,,,,,,,,,,,
AUT,1971,,,,,,,,,,,,,,,,,,,,,
AUT,1972,,,,,,,,,,,,,,,,,,,,,
AUT,1973,,,,,,,,,,,,,,,,,,,,,
AUT,1974,,,,,,,,,,,,,,,,,,,,,
AUT,1975,,,,,,,,,,,,,,,,,,,,,
AUT,1976,,,,,,,,,,,,,,,,,,,,,
AUT,1977,,,,,,,,,,,,,,,,,,,,,
AUT,1978,,,,,,,,,,,,,,,,,,,,,
AUT,1979,,,,,,,,,,,,,,,,,,,,,
AUT,1980,,,,,,,,,,,,,,,,,,,,,
AUT,1981,,,,,,,,,,,,,,,,,,,,,
AUT,1982,,,,,,,,,,,,,,,,,,,,,
AUT,1983,,,,,,,,,,,,,,,,,,,,,
AUT,1984,,,,,,,,,,,,,,,,,,,,,
AUT,1985,,,,,,,,,,,,,,,,,,,,,
AUT,1986,,,,,,,,,,,,,,,,,,,,,
AUT,1987,,,,,,,,,,,,,,,,,,,,,
AUT,1988,,,,,,,,,,,,,,,,,,,,,
AUT,1989,,,,,,,,,,,,,,,,,,,,,
AUT,1990,,,,,,,,,,,,,,,,,,,,,
AUT,1991,,,,,,,,,,,,,,,,,,,,,
AUT,1992,,,,,,,,,,,,,,,,,,,,,
AUT,1993,,,,,,,,,,,,,,,,,,,,,
AUT,1994,,,,,,,,,,,,,,,,,,,,,
AUT,1995,,,,,,,,,,,,,,,,,,,,,
AUT,1996,,,,,,,,,,,,,,,,,,,,,
AUT,1997,,,,,,,,,,,,,,,,,,,,,
AUT,1998,,,,,,,,,,,,,,,,,,,,,
AUT,1999,,,,,,,,,,,,,,,,,,,,,
AUT,2000,,,,,,,,,,,,,,,,,,,,,
AUT,2001,,,,,,,,,,,,,,,,,,,,,
AUT,2002,,,,,,,,,,,,,,,,,,,,,
AUT,2003,,,,,,,,,,,,,,,,,,,,,
AUT,2004,,,,,,,,,,,,,,,,,,,,,
AUT,2005,,,,,,,,,,,,,,,,,,,,,
AUT,2006,,,,,,,,,,,,,,,,,,,,,
AUT,2007,,,,,,,,,,,,,,,,,,,,,
AUT,2008,,,,,,,,,,,,,,,,,,,,,
AUT,2009,,,,,,,,,,,,,,,,,,,,,
AUT,2010,,,,,,,,,,,,,,,,,,,,,
AUT,2011,,,,,,,,,,,,,,,,,,,,,
AUT,2012,,,,,,,,,,,,,,,,,,,,,
AUT,2013,,,,,,,,,,,,,,,,,,,,,
AUT,2014,,,,,,,,,,,,,,,,,,,,,
AUT,2015,,,,,,,,,,,,,,,,,,,,,
AUT,2016,,,,,,,,,,,,,,,,,,,,,
AUT,2017,,,,,,,,,,,,,,,,,,,,,
AUT,2018,,,,,,,,,,,,,,,,,,,,,
AUT,2019,,,,,,,,,,,,,,,,,,,,,
AUT,2020,,,,,,,,,,,,,,,,,,,,,
AUT,2021,,,,,,,,,,,,,,,,,,,,,
AUT,2022,,,,,,,,,,,,,,,,,,,,,
AUT,2023,,,,,,,,,,,,,,,,,,,,,
AUT,2024,,,,,,,,,,,,,,,,,,,,,
AZE,1960,,,,,,,,,,,,,,,,,,,,,
AZE,1961,,,,,,,,,,,,,,,,,,,,,
AZE,1962,,,,,,,,,,,,,,,,,,,,,
AZE,1963,,,,,,,,,,,,,,,,,,,,,
AZE,1964,,,,,,,,,,,,,,,,,,,,,
AZE,1965,,,,,,,,,,,,,,,,,,,,,
AZE,1966,,,,,,,,,,,,,,,,,,,,,
AZE,1967,,,,,,,,,,,,,,,,,,,,,
AZE,1968,,,,,,,,,,,,,,,,,,,,,
AZE,1969,,,,,,,,,,,,,,,,,,,,,
AZE,1970,,,,,,,,,,,,,,,,,,,,,
AZE,1971,,,,,,,,,,,,,,,,,,,,,
AZE,1972,,,,,,,,,,,,,,,,,,,,,
AZE,1973,,,,,,,,,,,,,,,,,,,,,
AZE,1974,,,,,,,,,,,,,,,,,,,,,
AZE,1975,,,,,,,,,,,,,,,,,,,,,
AZE,1976,,,,,,,,,,,,,,,,,,,,,
AZE,1977,,,,,,,,,,,,,,,,,,,,,
AZE,1978,,,,,,,,,,,,,,,,,,,,,
AZE,1979,,,,,,,,,,,,,,,,,,,,,
AZE,1980,,,,,,,,,,,,,,,,,,,,,
AZE,1981,,,,,,,,,,,,,,,,,,,,,
AZE,1982,,,,,,,,,,,,,,,,,,,,,
AZE,1983,,,,,,,,,,,,,,,,,,,,,
AZE,1984,,,,,,,,,,,,,,,,,,,,,
AZE,1985,,,,,,,,,,,,,,,,,,,,,
AZE,1986,,,,,,,,,,,,,,,,,,,,,
AZE,1987,,,,,,,,,,,,,,,,,,,,,
AZE,1988,,,,,,,,,,,,,,,,,,,,,
AZE,1989,,,,,,,,,,,,,,,,,,,,,
AZE,1990,,,,,,,,,,,,,,,,,,,,,
AZE,1991,,,,,,,,,,,,,,,,,,,,,
AZE,1992,,,,,,,,,,,,,,,,,,,,,
AZE,1993,,,,35500000,,35500000,0,,,,,,,,,,,,.1125,6.778792588,
AZE,1994,,,,103199844.4,,103199844.4,0,,,,,,8152000,8152315.9,,67415315.90000001,,,8.5228,472.660771,
AZE,1995,,1.237473727,8692412,206082378.9,,206082378.9,0,,30204000,,102959735.7,3912000,89521000,55404749.8,,102057749.8,1.093890135,1.765856251,4.3715,11.60786732,1.275227004
AZE,1996,,1.14595134,4323000,247857892,,247857892,0,,35840000,,78135070.2,5688000,43542000,2013536.4,,46558536.4,.535037334,1.916010401,3.5319,7.245582128,1.218354033
AZE,1997,,6.599570101,69255483.09999999,237273458.7,,237273458.7,0,,55352000,,104651646,26740000,24482000,-57609867,,27105049.4,5.904973948,.341054524,.7873,.85594592,6.63947348
AZE,1998,,2.031870162,11477492.7,383895180.6,72338500,311556680.6,0,,20635000,,41259603.5,18216000,44746000,5895198.2,69441000,70335403.8,1.095471194,.141258845,.2094,.329958933,2.276901115
AZE,1999,95831000,4.669362621,24758488.6,642012466.2,108496805.2,533515661,0,,60496000,,93790819.7,22978000,87625000,4150935.5,49074000,172404839.6,1.914717825,2.242738554,2.2496,4.311693245,5.301268733
AZE,2000,83712000,5.548734843,46407004.2,893109703.3,98632996.90000001,794476706.4,0,,27196000,,-51441195,9091000,47649000,11362435.6,-1848000,200825961.4,2.134622079,7.185323008,9.854100000000001,22.98539359,6.351088406
AZE,2001,-29498000,5.008534283,66737269.6,928734247.1,95180400,833553847.1,-14823300,,27557000,,-29068521.1,-1695000,30127000,4265191.1,-2687000,104456644.3,2.768913611,4.267637195,6.7679,14.18799024,5.832862167
AZE,2002,-56834000,4.555902159,64170398.2,1131627392,72487192.7,1059140199,-28440200,,56919000,,-38572807.9,540000,63738000,6279298.9,-32092000,180580672.3,2.383501761,3.059866863,4.8411,11.43417454,6.075800851
AZE,2003,-20819000,5.362611672,80354133,1368802382,76412763,1292389619,-30021700,,74742000,,-42863428.4,-5331000,77738000,8326865.7,3392000,140757986.8,2.599685886,3.332344414,5.257,12.82945944,7.185266512
AZE,2004,121765000,3.269879941,69446917.8,1607692266,230222142,1377470124,-9870600,,49165000,,-59707319.6,-8460000,46156000,5451316.5,140705000,45087548.4,1.657999907,3.294660072,6.2939,12.83620279,5.673988759
AZE,2005,246560000,1.577762042,74199345.59999999,1700928081,187239624.6,1513688456,-10899919.84,0,45634000,,-29097688.6,-11793000,41128000,6784136.4,27286000,36041446.2,.889538439,2.229859959,8.1936,15.79291026,2.905723078
AZE,2006,47886000,1.030679445,95925797.09999999,1935113231,103833597,1831279634,-9872000,5394000,56313000,,-37157453.6,7165000,77365000,4448193.9,-91109000,124487621.4,.685458791,3.715773882,18.4371,20.79689747,2.014615811
AZE,2007,205483000,.804809294,136325980.7,2446738660,143007154.5,2303731506,-1619302.71,16009000,51982000,,-36833280.5,90579000,192948000,21308170.1,36456000,205074869,.601005311,4.990523516,28.8451,26.49121381,1.19049702
AZE,2008,331554000,.777477993,228186733.2,3070829936,326849095.2,2743980841,1999986.48,56328000,42157000,,-21691127.4,48790000,183015000,26925972.2,192708000,235999656.9,.7024538340000001,3.497081292,25.1181,17.5654551,1.020312687
AZE,2009,275249000,1.235223862,268468464.6,3682175488,313823185.2,3368352303,18404545.45,121558000,36081000,,-18549894.4,93766157.09999999,301767000,35287538.2,-2430000,316025337.1,1.151696724,2.552476887,12.992,11.09277778,1.564872964
AZE,2010,2015060000,1.089984935,299622224.8,6004154125,2158024150,3846129975,-534090.9,101207000,35925000,,-14732878.5,39579000,311674000,129878352,1841826000,321202818.6,1.036385304,3.45551442,13.7121,15.58730987,1.437179114
AZE,2011,738659000,.9363843549999999,338852995.3,7366454305,2616442359,4750011945,16872722.41,168205000,46739000,,-17253002.6,96511000,464529000,153378060,454763000,653450306.7,.890369756,.2391115,1.1784,.88573737,2.939061862
AZE,2012,273563000,1.032987657,377724940.6,8973705133,2752361528,6221343605,7508019,339736000,26451000,,-13060904.5,143285000,643025000,132256275.8,133836000,874624614.7,.998282709,4.310845608,15.024,14.46364274,3.419827544
AZE,2013,-440239000,2.303871309,841001846.2,8749420834,2142357531,6607063303,-23375791,234633000,-231522000,,-9779319.1,122387956.3,162574000,37100788.7,-611692000,264822082.7,2.276577539,4.344396104,15.145,10.57566011,5.250918205
AZE,2014,-738294000,2.037289543,693349357.4,9872281028,1448486085,8423794943,-19708002,305487000,8359000,,-3911532.3,145402108.8,457707000,-1091201.2,-676317000,471453754.3,2.02552073,5.903293397,16.6763,12.95077148,5.474082038
AZE,2015,1575480000,3.728906452,791911752.4,11577529461,2846856668,8730672793,-2292305,229228000,-29185000,,-1800673.4,150165000,385203000,35663797.5,1411085000,338563745.6,3.719941868,7.269336846,11.6024,21.8867795,8.964157146
AZE,2016,-381823000,5.379956159,995096494.6,13006394599,2363097647,10643296952,-4380556,158560000,-36694000,,,745554000,891100000,24570096.8,-483027000,864206156.5,5.378979347,7.545965408,9.5557,20.84009154,9.541835291
AZE,2017,-287067000,7.540328869,1592818764,14546126296,1937439107,12608687189,-5230556,424956000,9863000,,,503299000,1035044000,-19001141.8,-445149000,1021417734,7.539790598,3.19382676,4.37,9.602683641,10.59223633
AZE,2018,900133000,7.747677474,2101128962,15799843122,1471373665,14328469457,-1555556,-67155000,-48745000,,,454566000,480663000,-87942038,-463770000,480182905.8,7.746920437,2.100580728,3.4355,8.507858325000001,9.946357756999999
AZE,2019,-630448000,6.093622934,1535076059,15709850560,1034859562,14674990998,-1555555,-79664000,-60456000,,,446788000,445065000,983114.4,-442650000,578994526.4,6.085264737,2.445302926,3.7296,8.725682215999999,8.197555288
AZE,2020,-635817000,7.982611273,1361937926,15804893359,1138210657,14666682701,-2168972,-237374000,-72872000,,,75511000,-114128000,20150534.2,94578000,-82351467.90000001,7.978685807,2.648933112,2.744,5.815563616,10.88868141
AZE,2021,-155366000,6.630034845,1810243910,14907605528,1284132104,13623473424,0,-328720000,-80791000,,,-72170000,-376312000,9529348.800000001,145864000,-453801307.7,6.628569055,0,0,0,7.862162998
AZE,2022,-414360000,2.921523812,1416854941,14066728472,1155757525,12910970947,0,-133557000,-49266000,,0,-147156000,-418342000,-60479957.6,-123997000,-476247210.1,2.902435312,1.037168639,3.3141,4.465409278,3.325643375
AZE,2023,-502858000,4.116681651,1514978236,13210640306,977880210,12232760096,20000000,-139875000,-15606000,,,-128387119.8,-353085000,-41313523.6,-181750000,-403511277.9,4.044637626,1.634676461,4.2132,4.453437251,4.914811929
AZE,2024,,,,,,,,,,,,,,,,,,,,,
BDI,1960,,,,,,,,,,,,,,,,,,,,,
BDI,1961,,,,,,,,,,,,,,,,,,,,,
BDI,1962,,,,,,,,,,,,,,,,,,,,,
BDI,1963,,,,,,,,,,,,,,,,,,,,,
BDI,1964,,,,,,,,,,,,,,,,,,,,,
BDI,1965,,,,,,,,,,,,,,,,,,,,,
BDI,1966,,,,,,,,,,,,,,,,,,,,,
BDI,1967,,,,,,,,,,,,,,,,,,,,,
BDI,1968,,,,,,,,,,,,,,,,,,,,,
BDI,1969,,,,,,,,,,,,,,,,,,,,,
BDI,1970,11000,,635280.6,7300400.9,,7300400.9,0,-288000,358000,,2310000,,923000,853000,,925877.7,,,0,,
BDI,1971,-59000,,555789.4,7830861,,7830861,0,-304000,505000,,-2316987.8,,201000,,,201000,,,0,,
BDI,1972,-381000,,1906928.3,6895385.6,,6895385.6,0,-322000,569000,,-6101634,,-645000,-892142,,-645142,,,0,,
BDI,1973,-271000,,857296.5,7780758.4,,7780758.4,0,-339000,314000,,-143091,,-25000,,,602962.8,,,0,,
BDI,1974,,,934315.1,9437482,,9437482,0,-359000,881000,,469043.3,,522000,,,1425247.9,,,0,,
BDI,1975,5517000,,2017139.3,17973869.7,,17973869.7,0,-380000,279000,,1457460,1001974.9,2901000,2000000,,3809550.2,,,0,,
BDI,1976,35000,,2778841.7,20959869.9,,20959869.9,0,-401000,990000,,,952132.5,1541000,,,2779443.4,,,0,,
BDI,1977,7000,,3029558.2,38270396.8,,38270396.8,0,-424000,2552000,,2373680,1972034.2,5645000,850000,,15519609.1,,,10.5883,5.213453934,
BDI,1978,2906000,,2859292.5,59420485.3,,59420485.3,0,,6919000,,-172830.2,197878,8646000,850000,,14138962.3,,,6.6952,5.998119004,
BDI,1979,1210000,,4199390.5,92716899.40000001,,92716899.40000001,0,,11341000,,19712845,-138249.6,15360000,2250000,,30481553.2,,,9.545500000000001,13.44014962,
BDI,1980,-2778000,,6170308.2,118029697.9,,118029697.9,0,,11609000,,6330909.4,270729.7,20268000,2544000,,37515598.6,,,7.2411,11.46634423,
BDI,1981,-2364000,,5278400.1,135901245.5,,135901245.5,0,,10346000,,84947.8,-339791,16065000,2944635.9,,28465700.4,,,5.5986,14.67440976,
BDI,1982,687000,,5558152.9,180560678,,180560678,0,,18109000,,-111530.5,-363302.4,28470000,4336275.1,,51098105.7,,,7.035,42.8293488,
BDI,1983,13153000,,6854209.7,273948583.4,,273948583.4,0,,27361000,,-5667705.4,6497072.6,52324000,8305071.3,,91558905.7,,,3.2496,29.84272462,
BDI,1984,10981000,,15806523.4,319942819.9,,319942819.9,0,,26569000,,-6514796.3,10487461.2,47847000,4420748.9,,63596984.9,,,3.4562,48.03376988,
BDI,1985,-2902000,19.02323184,21166641.7,408967407.7,,408967407.7,0,,17321000,,-3172529.6,4973209.3,38957000,7560060.5,,62043402.5,16.48991648,24.60809666,6.9407,89.98202626,20.42552561
BDI,1986,-5736000,23.17489618,28712881.1,524246436.7,,524246436.7,0,,43230000,,5683986.9,2447060.3,71242000,12615825.8,,88106424.7,20.08689179,16.83666597,4.219,31.74849201,24.50409384
BDI,1987,-7773000,39.38179462,39701962.7,711720213,,711720213,0,,40946000,,-4712750.4,7006254,88304000,22861158.8,,124829881.3,35.08099758,32.97610032,4.8493,54.03275356,41.32573364
BDI,1988,-925000,32.06449464,40285899.7,755551588.1,,755551588.1,0,,43944000,,12963778.2,1271644,67711000,8744407.5,,81090532,28.94840254,9.107821956,1.5829,16.57937049,33.28607055
BDI,1989,-5554000,35.35158528,38641612.9,832270827.5,,832270827.5,0,,44043000,,8224862.9,-2599754.1,55375000,5484899.4,,90625268.3,32.90118548,13.9993268,1.8497,15.43446341,36.43036536
BDI,1990,-5975000,41.67552981,39711078,850948296.7,,850948296.7,0,,47879000,,-784717.4,-3662919.5,52237000,6968921.6,,74146202.2,40.66210588,13.68234999,1.4733,11.96608441,43.41419466
BDI,1991,-2575000,29.5711514,37522340.8,901246702.3,,901246702.3,0,,38259000,5843697.8,-98535.39999999999,-3879832.1,54464000,1092728.2,,62489570.7,29.25214539,10.41957334,1.3872,9.062904763000001,30.61268733
BDI,1992,,35.3360747,35646319.5,951209642.6,,951209642.6,0,,47650000,15821535.8,,-4241332.4,75320000,17963726.4,,91984961.8,32.87795631,11.95447585,1.2625,7.20411855,36.53511415
BDI,1993,,35.47548076,30883404.6,1002213476,,1002213476,0,,34617000,-4173817.2,,-1421527.4,58255000,-119505.5,,58871016.9,30.98038579,5.205574763,.4869,3.05770013,36.19774173
BDI,1994,,38.977672,34148024.2,1066115553,,1066115553,0,,25535000,-6114907,,-3180610.9,33005000,-4492562.9,,31652658.8,32.93729782,5.421665491,.4985,2.66013474,39.47923527
BDI,1995,,27.27207254,28749791.3,1099254966,,1099254966,0,,24439000,-9070045.699999999,,-2052822.3,28797000,-4871891.3,,27934033.8,20.57560892,10.66242314,1.2821,6.893918258,27.6470881
BDI,1996,,53.3579168,21595666.6,1084891765,,1084891765,0,,13920000,-8678770.9,,-4054835.5,22438000,-1704190.2,,23036847.5,37.64837083,14.31869317,.7262999999999999,5.627148649,53.95587895
BDI,1997,,30.16620213,21153413.5,1025626040,,1025626040,0,,7373000,-7951048.1,,-3831034.6,3378000,-1472432.2,,6545823.3,21.80345206,16.29404976,1.4788,13.39238605,30.32699597
BDI,1998,,41.30755385,20936184,1082065039,,1082065039,0,,18479000,-8725436,,-4060835,17457000,-792700.8,,17063775.7,29.0420361,27.87217682,1.791,28.50831938,42.3423823
BDI,1999,,46.16894776,20461455.2,1053137543,,1053137543,0,,7613000,-7042071.4,,-1960360.9,6976000,-1869719.2,,6590536.9,33.36943512,113.6575069,6.0406,131.5411855,48.69512464
BDI,2000,,34.83635962,13927380.3,1036016293,,1036016293,0,,27571000,-4540015.2,,0,28799000,1481701.9,,28799452.9,25.13501863,117.3114155,5.7735,172.6639531,40.85690479
BDI,2001,,46.40686696,16659999.6,985499684.2,,985499684.2,456900,,2192000,-4381984.4,,-167924.5,2285000,530498.1,,1289674.7,36.02888367,191.158146,8.0832,491.7630181,50.77531515
BDI,2002,,54.56562513,18603867,1104166707,,1104166707,0,,25027000,-2504273.7,12463099.7,0,27081000,2053626.4,,30797739.8,47.24088893,244.6396864,7.8185,162.9981295,60.096231
BDI,2003,,62.11810361,28031461.6,1251824050,,1251824050,0,,26921000,,13463450,-579740.8,31222000,5819395.6,,30918354.7,60.80416781,103.1546201,3.5269,70.59248001,64.20047812
BDI,2004,,134.7219551,58983490.7,1273100721,,1273100721,0,,29334000,39125130,-28528740.6,-6955084.6,8461000,-567683.2,,8311879.5,89.98605191999999,34.41998082,1.6614,34.09424063,134.8028126
BDI,2005,,40.40748164,39107738.6,1176083859,,1176083859,0,,18857000,21125962,,-2694668.1,19785000,-2227512,,19551459.9,39.60479241,34.49412305,2.6447,33.86639488,40.51887972
BDI,2006,,20.36018688,18728233.3,1230938177,,1230938177,-153538.83,,28824000,21041127.3,,0,27233000,880920.5,,27232955.7,19.15337831,38.46985591,2.7418,28.68413708,20.42563973
BDI,2007,,18.46694618,16950619.8,1276072170,,1276072170,0,,19243000,10945883.4,,0,19023000,2596434.9,,19998266.7,17.24358377,14.03961447,.9789,7.791458294,18.51374121
BDI,2008,,11.86234396,18691266.8,1234296834,,1234296834,0,,13760000,21735388.5,,,14305000,-1653497.3,,13530991.8,11.4075208,10.97856679,1.2938,6.748936369,11.98074466
BDI,2009,,16.48222085,12090253,393503090.3,,393503090.3,0,,8559000,13421140.1,,,25745000,13002516.8,,30733729.4,10.09868892,5.846926646,1.1528,2.166588085,16.59414773
BDI,2010,,2.328103369,3860714.7,381775130.4,,381775130.4,0,,17825000,20142309.3,,,29145000,9734995.199999999,,29145439.1,2.122945525,8.654807991,2.5349,4.739548891,2.405637023
BDI,2011,,3.923252254,7159107.9,363888037.6,,363888037.6,0,,8584000,18558567,,,25318000,16015285.8,,22910014.7,2.944608251,.173791499,.0698,.143014481,3.923252254
BDI,2012,,8.752866129999999,12920010.2,407979277.5,,407979277.5,0,,5010000,7650899.3,,,25257000,18363234.6,,45962221,5.484298499,3.083854268,1.0942,2.352982986,8.797861113
BDI,2013,,13.51917169,21397919.4,394740120.8,,394740120.8,2750000,,-894000,4967924.5,,,-11925000,-11398981.2,,-11318047.3,9.104661654999999,13.30303388,4.5963,9.494146063000001,13.71872784
BDI,2014,,11.96148074,9638641.6,404514416.5,,404514416.5,5250000,,-2578000,-850993.8,,,19442000,19546212.9,,34563204.9,4.478735907,22.42703874,6.9835,15.21886648,12.26537142
BDI,2015,,13.9133302,9411696.800000001,409076720.8,,409076720.8,0,,-3152000,-10472447.9,,,2946000,6577000,,15320728.6,4.862256954,.13690391,.0422,.194660596,13.9133302
BDI,2016,,15.97999539,15275752.7,409801131.1,,409801131.1,0,,-3216000,-18042959.6,,,8993000,12701000,,7458867,7.307505415,.126768806,.0438,.278482808,15.97999539
BDI,2017,,9.620107357,10646814,420080499.3,,420080499.3,0,,-3179000,-16620060.4,,,-1943000,2072457.8,,-2162078.3,3.748898435,.093310364,.0435,.272066714,9.620107357
BDI,2018,,9.064333212999999,11066898.6,427148830.2,,427148830.2,0,,-3289000,-17636655,,,6133000,9926000,,12301893.3,3.482803389,.083396707,.0446,.388983969,9.064333212999999
BDI,2019,,11.76017142,20271074.4,479295278.2,,479295278.2,0,,-3191000,-16248595.4,,,25029000,28720600.5,,53236093.2,6.351372605,.083463579,.0423,.239179259,11.76017142
BDI,2020,,12.21978085,14141375.9,532426932.3,,532426932.3,0,,-3236000,-22205490.5,,,3382000,7179000,,39731027.7,4.712414536,.088307521,.0398,.293403951,12.21978085
BDI,2021,,9.070523844,18689600.3,575775997.1,,575775997.1,0,,-3907000,65871920.9,,,35405000,40147216.7,,49014742,5.694497445,.080742327,.0271,.099562643,9.070523844
BDI,2022,,9.199920722,25575491.9,578318610.3,,578318610.3,3150000,,-4039000,-3880933.9,0,,12204000,17055635.8,,19726017.4,7.053675095,.073086528,.0277,.167160473,9.199920722
BDI,2023,,10.87885435,27134797,607085974.9,,607085974.9,-1250000,,-4619000,55629846,,,20757000,26145544.2,,26734118.2,6.643348631,.07197933,.0281,.325401631,10.87885435
BDI,2024,,,,,,,,,,,,,,,,,,,,,
BEL,1960,,,,,,,,,,,,,,,,,,,,,
BEL,1961,,,,,,,,,,,,,,,,,,,,,
BEL,1962,,,,,,,,,,,,,,,,,,,,,
BEL,1963,,,,,,,,,,,,,,,,,,,,,
BEL,1964,,,,,,,,,,,,,,,,,,,,,
BEL,1965,,,,,,,,,,,,,,,,,,,,,
BEL,1966,,,,,,,,,,,,,,,,,,,,,
BEL,1967,,,,,,,,,,,,,,,,,,,,,
BEL,1968,,,,,,,,,,,,,,,,,,,,,
BEL,1969,,,,,,,,,,,,,,,,,,,,,
BEL,1970,,,,,,,,,,,,,,,,,,,,,
BEL,1971,,,,,,,,,,,,,,,,,,,,,
BEL,1972,,,,,,,,,,,,,,,,,,,,,
BEL,1973,,,,,,,,,,,,,,,,,,,,,
BEL,1974,,,,,,,,,,,,,,,,,,,,,
BEL,1975,,,,,,,,,,,,,,,,,,,,,
BEL,1976,,,,,,,,,,,,,,,,,,,,,
BEL,1977,,,,,,,,,,,,,,,,,,,,,
BEL,1978,,,,,,,,,,,,,,,,,,,,,
BEL,1979,,,,,,,,,,,,,,,,,,,,,
BEL,1980,,,,,,,,,,,,,,,,,,,,,
BEL,1981,,,,,,,,,,,,,,,,,,,,,
BEL,1982,,,,,,,,,,,,,,,,,,,,,
BEL,1983,,,,,,,,,,,,,,,,,,,,,
BEL,1984,,,,,,,,,,,,,,,,,,,,,
BEL,1985,,,,,,,,,,,,,,,,,,,,,
BEL,1986,,,,,,,,,,,,,,,,,,,,,
BEL,1987,,,,,,,,,,,,,,,,,,,,,
BEL,1988,,,,,,,,,,,,,,,,,,,,,
BEL,1989,,,,,,,,,,,,,,,,,,,,,
BEL,1990,,,,,,,,,,,,,,,,,,,,,
BEL,1991,,,,,,,,,,,,,,,,,,,,,
BEL,1992,,,,,,,,,,,,,,,,,,,,,
BEL,1993,,,,,,,,,,,,,,,,,,,,,
BEL,1994,,,,,,,,,,,,,,,,,,,,,
BEL,1995,,,,,,,,,,,,,,,,,,,,,
BEL,1996,,,,,,,,,,,,,,,,,,,,,
BEL,1997,,,,,,,,,,,,,,,,,,,,,
BEL,1998,,,,,,,,,,,,,,,,,,,,,
BEL,1999,,,,,,,,,,,,,,,,,,,,,
BEL,2000,,,,,,,,,,,,,,,,,,,,,
BEL,2001,,,,,,,,,,,,,,,,,,,,,
BEL,2002,,,,,,,,,,,,,,,,,,,,,
BEL,2003,,,,,,,,,,,,,,,,,,,,,
BEL,2004,,,,,,,,,,,,,,,,,,,,,
BEL,2005,,,,,,,,,,,,,,,,,,,,,
BEL,2006,,,,,,,,,,,,,,,,,,,,,
BEL,2007,,,,,,,,,,,,,,,,,,,,,
BEL,2008,,,,,,,,,,,,,,,,,,,,,
BEL,2009,,,,,,,,,,,,,,,,,,,,,
BEL,2010,,,,,,,,,,,,,,,,,,,,,
BEL,2011,,,,,,,,,,,,,,,,,,,,,
BEL,2012,,,,,,,,,,,,,,,,,,,,,
BEL,2013,,,,,,,,,,,,,,,,,,,,,
BEL,2014,,,,,,,,,,,,,,,,,,,,,
BEL,2015,,,,,,,,,,,,,,,,,,,,,
BEL,2016,,,,,,,,,,,,,,,,,,,,,
BEL,2017,,,,,,,,,,,,,,,,,,,,,
BEL,2018,,,,,,,,,,,,,,,,,,,,,
BEL,2019,,,,,,,,,,,,,,,,,,,,,
BEL,2020,,,,,,,,,,,,,,,,,,,,,
BEL,2021,,,,,,,,,,,,,,,,,,,,,
BEL,2022,,,,,,,,,,,,,,,,,,,,,
BEL,2023,,,,,,,,,,,,,,,,,,,,,
BEL,2024,,,,,,,,,,,,,,,,,,,,,
BEN,1960,,,,,,,,,,,,,,,,,,,,,
BEN,1961,,,,,,,,,,,,,,,,,,,,,
BEN,1962,,,,,,,,,,,,,,,,,,,,,
BEN,1963,,,,,,,,,,,,,,,,,,,,,
BEN,1964,,,,,,,,,,,,,,,,,,,,,
BEN,1965,,,,,,,,,,,,,,,,,,,,,
BEN,1966,,,,,,,,,,,,,,,,,,,,,
BEN,1967,,,,,,,,,,,,,,,,,,,,,
BEN,1968,,,,,,,,,,,,,,,,,,,,,
BEN,1969,,,,,,,,,,,,,,,,,,,,,
BEN,1970,,,1746726.1,42326414.5,,42326414.5,0,,145000,,,,145000,,,1992939.8,,,2.0372,,
BEN,1971,-1206000,,3681838,49825705.9,,49825705.9,0,,2186000,,,,2186000,,,6193659.1,,,2.3984,,
BEN,1972,,,2980974,45300101.9,,45300101.9,0,,2071000,,,,2578000,506576.2,,3835662.8,,,4.26,,
BEN,1973,552000,,2314021.5,87567697.09999999,,87567697.09999999,0,,5272000,,,87400.7,6672000,1312633.4,,38783466.6,,,3.2229,,
BEN,1974,3612000,5.236108238,6234698.3,104736798.1,,104736798.1,0,,4148000,,,178342.5,5110000,269481.8,,7845402.1,5.236108238,3.419901617,3.7424,,5.236108238
BEN,1975,-183000,4.121944997,6089263.8,113928315.7,,113928315.7,0,,4011000,,,117808,10019000,3843777.9,,12858261.5,4.121944997,3.57387272,4.4289,,4.121944997
BEN,1976,,3.587395344,4300511.7,136239652.7,,136239652.7,0,,5929000,,,1723071.3,11019000,2644344.5,,24458407.7,3.587395344,4.156336763,3.5281,,3.587395344
BEN,1977,,2.355496109,3887225.5,179936571.8,,179936571.8,0,,7034000,,,572111.8,19653000,10842214.8,,39192637.7,2.355496109,19.6570695,15.2746,,2.355496109
BEN,1978,,3.083312924,5163705.4,214723252.1,,214723252.1,0,,2397000,,6747890.8,5625747,15694000,6414000,,30272463.6,3.070652183,36.96545048,21.8954,,3.083312924
BEN,1979,,3.578338425,6488904,348913568,,348913568,0,,5466000,,,1660287.6,16752000,6738512.5,,47574814,3.55920357,53.64776159,21.552,,3.578338425
BEN,1980,,3.640802353,8733234.6,385320506,,385320506,0,,12232000,,9458618.199999999,2004440.9,24015000,3822000,,57434653.6,3.619226244,30.4226484,15.4589,,8.365189257999999
BEN,1981,,2.171531837,10036013.4,443969123.5,,443969123.5,0,,9923000,,57811.7,2293589.5,21443000,4990803.3,,28758597.1,2.156322052,18.14865834,15.5493,,4.858551324
BEN,1982,181061000,7.535380756,14550764.1,665975642.2,,665975642.2,0,,10824000,,,-129198.7,29399000,8844380,,77758304.09999999,7.49952486,40.3528084,10.3251,,12.91620055
BEN,1983,41991000,13.78101025,25519233.1,702075345.3,,702075345.3,0,,16440000,,-240553.1,403060,37168000,12995092.3,,52400917.8,13.61671474,44.44706899,10.4326,,17.58494742
BEN,1984,-8123000,13.99626402,39384292,662871778.7,,662871778.7,0,,13582000,,-1105238.4,-542366.5,30522000,11801999,,32307379.1,13.60456371,30.58909436,11.612,,16.36730386
BEN,1985,-17976000,12.39021851,41236553,745711629.3,,745711629.3,0,,18857000,,-1095447.4,-1568989.6,24788000,4738006.3,,29242704.1,12.0533871,42.62538703,16.1514,,14.36674171
BEN,1986,-17929000,14.28065958,51693646.9,857769295.1,,857769295.1,0,,26332000,,-2971681.8,-1428332.2,46599000,11797780,,63722620.4,13.49044092,44.70834448,16.4947,,16.15337334
BEN,1987,-1452000,7.038060547,29051249.9,1027018311,,1027018311,0,,21360000,,-3312547.4,-1054409.2,37882000,8380635.3,,56588038,6.308499117,45.60458234,16.8753,,8.85952058
BEN,1988,,6.783650312,17848822.6,1014797516,,1014797516,0,,21867000,,-3099800.1,-908701.1,42445000,12035481.7,,53278492.3,5.770975582,48.96127831,12.9404,,9.150714693999999
BEN,1989,,7.195910749,19272467.4,989161417.4,,989161417.4,0,,46683000,,6162237.5,-2751021.8,52445000,6399475.2,,123649455.9,6.556165579,24.08128615,6.6148,,8.81177995
BEN,1990,,8.910229459,31485725.1,1046319865,,1046319865,0,,54780000,,-1972654.6,-1354927.2,72112000,6245056.9,,101256718.3,8.371987038,14.76656053,4.9993,,9.864536892
BEN,1991,,5.10605556,27596123.7,1065457535,,1065457535,0,,40451000,12850661,-67058.8,-1237166.9,67091000,4427552,,81847952.2,5.076599787,11.38058262,5.3808,,5.565957088
BEN,1992,,4.818827973,25683544.6,1149947239,,1149947239,0,,31361000,,,-1490312.1,60682000,7669487.2,,67272787.90000001,4.798301289,5.143338206,2.2961,,5.144088472
BEN,1993,,5.222765654,30002631.5,1194513979,,1194513979,0,,27966000,21853542.5,,-471980.6,53624000,2551237.5,,60804146.6,5.192075943,5.728800264,2.6053,,5.46850236
BEN,1994,,6.860436827,37317968.8,1279929923,,1279929923,0,,25931000,25052502.1,,-624379.2,62269000,4681675.7,,59944531,6.677228068,5.536489528,2.2388,,7.092864248
BEN,1995,,7.247293653,43973260.5,1265304706,,1265304706,0,,27460000,11846590.3,,-682756.9,64153000,11916513.6,,67041894.5,6.895188224,7.370494176,3.366,,7.538792504
BEN,1996,,6.161383736,39737118.9,1231456398,,1231456398,0,,37341000,17912123.6,,,73130000,12692941.8,,84757484,5.796298758,6.838671131,3.4035,,6.403083872
BEN,1997,,8.445157049000001,42966893.2,1188726299,8667000,1180059299,0,,15880000,1926526,,,24210000,2473005.4,8667000,20933817.6,7.59917858,16.04595847,6.6013,,8.930110604999999
BEN,1998,,9.228389836,48459725.2,1276422861,10832000,1265590861,0,,15564000,-5309070.3,,,37049000,16529112.9,2165000,42010403.3,8.246026851,16.53540931,6.6234,,10.21226927
BEN,1999,,10.38109427,55081749.3,1276482070,4948000,1271534070,0,,42847000,968113.9,,2265769.4,55537000,-3996372.8,-5884000,41705703.1,8.796027136999999,28.86815489,11.571,,12.4824325
BEN,2000,69670000,12.94875946,60128456.9,1322603662,76699000,1245904662,0,,32603000,-1568296.9,,-176746.7,13328000,-482162.6,71751000,-2273020,10.8686946,15.43473775,5.6768,,14.16905615
BEN,2001,-3151000,8.291613269999999,34656659,1383493403,73548000,1309945403,10900,,43600000,548702.9,,-53430.6,99730000,31199150.1,-3151000,100208457.7,6.376705499,28.84753023,9.6249,,10.04215639
BEN,2002,,8.686293448000001,43769591.8,1539284256,83022000,1456262256,0,,20107000,-4563113.1,,-255086.9,45569000,20076725.8,9475000,41882118.9,7.017445132,36.22539325,12.2049,,10.32194899
BEN,2003,,6.620172917,38342138.9,1460792524,99081000,1361711524,0,,23456000,-504966.8,,-351485.3,34556000,1999519.9,16059000,35218212.7,5.198425419,21.52196186,9.301299999999999,,7.862356453
BEN,2004,,4.937125025,31715404.9,1595891543,83172000,1512719543,-14300,,36495000,-5550136.8,,-349755,67975000,-1831170.5,-15908000,85882136.09999999,3.922743663,39.4589703,15.9927,,9.01578634
BEN,2005,,5.8740084,38776325.5,1552655913,101984000,1450671913,0,,42819000,-6173803.9,,-344220.2,73110000,-2951821.6,18812000,76383056,4.861614814,32.28252923,13.7224,,7.524205353
BEN,2006,,4.137590985,39847297.4,778118824,175638000,602480824,0,,28428000,1294838.6,,-176568.9,70887000,27090317.3,73654000,127723258.1,4.077584083,47.07660898,36.6579,,6.344138262
BEN,2007,,2.145233468,29245090.2,1042281915,275557000,766724915.2,0,,42501000,1347185.7,,0,129546000,50789869.5,99918000,146450444.6,2.107377533,31.48536574,29.163,,4.14055246
BEN,2008,,1.58690021,26503283.3,1173485140,301586000,871899139.9,0,,84119000,18858413.5,,0,129850000,16278657.2,26029000,131828412.2,1.575793125,29.23488767,28.8875,,3.032704527
BEN,2009,,2.933918457,43483892.7,1307520252,324877000,982643252,0,,51371000,15733321.3,,,100766000,23847085.2,23291000,109349925.3,2.909427134,38.54785841,28.5887,,3.747923099
BEN,2010,,2.2841987,38742071.1,1480535265,368286000,1112249265,0,,78348000,16205403.4,,,137129000,18669075.1,43409000,149227189.3,2.266869886,38.49858364,28.8059,,2.867386215
BEN,2011,,2.440537263,42766781.1,1291131175,98979000,1192152175,0,,21115000,33181519.5,,,74081000,30517843.3,-269307000,86299315.40000001,2.41919415,37.7080834,31.2196,,18.55753137
BEN,2012,,2.885186762,56098221.7,1487211621,187197000,1300014621,0,,33050000,31828966.2,,,76957000,34090338.6,88219000,90431976.8,2.849571521,46.89704635,35.2374,,3.954190927
BEN,2013,,3.097992683,81083888.7,1833925397,239050000,1594875397,0,,119759000,15187958.8,,,267141000,80692235.2,51853000,272399508.6,3.05827504,39.54075762,33.7338,,3.693663888
BEN,2014,,2.457704297,71150130,2087506736,325871000,1761635736,0,,102350000,8599596.5,,,188636000,51744472.2,86820000,279219234.2,2.221383096,48.07449847,40.0201,,3.230894063
BEN,2015,,2.745560981,69327300.40000001,2113743320,211742000,1902001320,0,,87019000,-8417133.800000001,,,168607000,59171547.1,-114128000,240196664.5,2.446987026,43.74518255,34.8583,,7.433384291
BEN,2016,,2.97683459,88519732.5,2917250727,899520000,2017730727,0,,107946000,-9655346.5,,,166610000,24882430.2,687777000,179900636.7,2.682169301,33.89575638,26.4905,,4.179057284
BEN,2017,375136000,3.010987974,86766232.90000001,3746550403,1235922000,2510628403,0,,102493000,27583614.7,,,249445000,90248002.5,336402000,297355512.5,2.52728986,24.70477482,17.5926,,3.621647561
BEN,2018,825046000,5.840783336,209720556.7,4572276583,1673597000,2898679583,0,,93383000,23908252.4,,,42036000,-75559989.40000001,437675000,90711079.59999999,5.303437503,52.71195887,30.2038,,7.865198074
BEN,2019,183950000,5.698045119,190054789,5360310971,1757068000,3603242971,0,,104316000,23514867.8,,0,88181000,-32719417.3,83471000,81945865.7,5.124239944,35.63310172,19.0197,,6.912059
BEN,2020,345633000,6.344032608,210515685.9,6431841229,2017737000,4414104229,0,,161800000,160420041.6,114979584,161595.8,380226000,205211661.9,260669000,441130590.9,5.661337889,38.3317165,16.9288,,7.020545692
BEN,2021,86301000,16.68063313,728615887,7882427461,2096773000,5785654461,0,,120642000,-13603178.5,0,1601212,186934000,55420864.6,79035000,267937895.8,16.34852614,33.62109018,14.8649,,17.29859215
BEN,2022,260409000,10.26823749,455611487.8,8276962606,2286953000,5990009606,0,,242360000,87391939.5,193243741.8,29139122.2,338793000,67207109,190180000,433520160.4,9.938428218,33.06158594,14.1166,,11.21786133
BEN,2023,594478000,18.53602065,792534736.6,9458471906,2286953000,7171518906,0,,376957000,53614097.9,135539385.1,16192687.5,423543000,-11302312.6,,402703081.2,,,15.0792,,21.15536201
BEN,2024,,,,,,,,,,,,,,,,,,,,,
BFA,1960,,,,,,,,,,,,,,,,,,,,,
BFA,1961,,,,,,,,,,,,,,,,,,,,,
BFA,1962,,,,,,,,,,,,,,,,,,,,,
BFA,1963,,,,,,,,,,,,,,,,,,,,,
BFA,1964,,,,,,,,,,,,,,,,,,,,,
BFA,1965,,,,,,,,,,,,,,,,,,,,,
BFA,1966,,,,,,,,,,,,,,,,,,,,,
BFA,1967,,,,,,,,,,,,,,,,,,,,,
BFA,1968,,,,,,,,,,,,,,,,,,,,,
BFA,1969,,,,,,,,,,,,,,,,,,,,,
BFA,1970,,,2118275.8,20789505.9,,20789505.9,0,,11000,,750000,,11000,,,143191.4,,,0,,
BFA,1971,,,2096983.6,23598002.3,,23598002.3,0,,5000,,,,456000,451364.6,,266920.2,,,0,,
BFA,1972,,,2053218.4,20015915.3,,20015915.3,0,,1552000,,-1215984,1300934.2,2851000,-2091.8,,4223182.9,,,0,,
BFA,1973,,,3093171.7,31067227.5,,31067227.5,0,,1475000,,-715455,768033.3,5465000,3221500.2,,9447349.300000001,,,0,,
BFA,1974,,4.468000125,3589389.1,47354443.4,,47354443.4,0,,1511000,,-180401.3,,6358000,4108697.4,,13598967.5,,,0,,4.468000125
BFA,1975,,5.50060228,5235909.1,62537911.1,,62537911.1,0,,4957000,,0,,8616000,3530513.6,,16309379.4,,,0,,5.50060228
BFA,1976,,4.395641585,4680948.5,85306252,,85306252,0,,6952000,,0,1154100,8363000,-168858.4,,22655143.1,,,0,,4.395641585
BFA,1977,,4.623998115,5480935.4,134283149.6,,134283149.6,0,,12716000,,0,-318748,24876000,7956942.2,,40992845.5,,,18.2623,,4.623998115
BFA,1978,-412000,5.261293895,7179328.8,179146283.6,,179146283.6,0,,15520000,,5338949.2,854131.7,26304000,6267269.4,,34675059.5,,,29.6935,,5.261293895
BFA,1979,13402000,5.074928419,9172257.5,246230060.8,,246230060.8,0,,18859000,,5089394.8,-543954.1,30611000,9017792,,49040954,,,12.8798,,5.074928419
BFA,1980,3899000,7.530728975,16894671.6,280711178.4,,280711178.4,0,,11765000,,4331674.9,-438634.2,23299000,5613181.6,,50869888.6,,,10.5926,,9.839358465
BFA,1981,776000,6.569523129,13692966.1,279681119.5,,279681119.5,0,,7061000,,57811.7,-398782.6,36767000,25178669.2,,60061147.5,,,10.6655,,9.391191561999999
BFA,1982,20641000,8.314470661,15210241.5,307029883.7,,307029883.7,0,,10460000,,,-372136.5,22302000,9906641.4,,44534413,,,9.1037,,10.76419671
BFA,1983,14543000,9.677717190999999,15088284.8,358082422.9,,358082422.9,0,,18376000,,,-179613,31480000,10352808.5,,67313303.90000001,,,6.9174,,11.53031229
BFA,1984,348000,10.75952658,18149356.9,369256869.1,,369256869.1,0,,12823000,,-640792.2,-487002.1,20567000,1922812.1,,41025094.9,,,7.3107,,12.35961899
BFA,1985,-9065000,15.86050736,24789918.2,456166856.7,,456166856.7,0,,20582000,,-1713287.9,298758.3,32851000,6432716,,49533002.4,,,8.757,,17.59232349
BFA,1986,-7294000,16.72280476,30564310.5,576716543,,576716543,0,,31462000,,-2969334.5,7577084.4,63980000,9588562.9,,81697071.09999999,,,8.557399999999999,,18.31620628
BFA,1987,-3831000,11.07267904,28572811.3,744114403.2,,744114403.2,0,,21336000,,-3313857.3,7327161,44511000,12172997.3,,98626632.8,,,9.3561,,12.52933835
BFA,1988,-1845000,12.11841144,34786654.3,767369530.6,,767369530.6,0,,18317000,,-3099800.1,3287992.7,41115000,11476740.2,,74709691.5,,,8.9115,,13.65265708
BFA,1989,2607000,13.14382611,31479686.8,648150964.3,,648150964.3,0,,23778000,,-1863926.2,3472748.4,37580000,2684927.2,,79284141.8,,,9.5535,,15.19087287
BFA,1990,,7.804257306,28082026.8,749566804.9,,749566804.9,0,,14160000,,-536268.8,244375.7,31550000,14704791,,60912113.7,,,10.0803,,9.352437115000001
BFA,1991,-600000,11.37736855,40164592,882637541.1,,882637541.1,0,,40630000,,8582161.4,-663745.6,76455000,14163554,,121824256.6,,,7.8313,,13.10746
BFA,1992,,8.885729446999999,28691263.2,978860621.5,,978860621.5,0,,47661000,,,-953630.7,96363000,15156739.2,,128221303.6,,,5.0251,,10.33718832
BFA,1993,,11.51527308,35865411.2,1068209465,,1068209465,0,,61091000,,12344109.7,-3403008.5,99717000,4881244.3,,118598586,,,2.6699,,12.16096447
BFA,1994,,14.88105755,41694536,1046309728,,1046309728,0,,76050000,,25318865.6,-2632130.9,74690000,-4061387.8,,79627080.90000001,,,3.593,,15.52953629
BFA,1995,,,46363907.9,1143325281,,1143325281,0,,80954000,,26824758.7,-2606614,81822000,-6383151.7,,83077556.2,,,4.3817,,
BFA,1996,,,45223980.2,1166830714,,1166830714,0,,45989000,,8707806.6,-1742142,65302000,6459188.6,,72940150.09999999,,,4.1001,,
BFA,1997,,,46639891.5,1149510077,,1149510077,0,,30443000,,16507575.9,-1498562,41018000,-797582.3,,44115431.1,,,5.035,,
BFA,1998,,,47913999.4,1298834761,,1298834761,0,,52499000,,15076511.5,-1861498.7,63063000,436089.2,,64178665.2,,,4.0413,,
BFA,1999,,,55558353.4,1371243391,,1371243391,0,,57247000,,11354827.4,-1930992,66020000,2490031.5,,75620601,,,6.4295,,
BFA,2000,,18.44807836,38208096.1,1237620632,,1237620632,0,,36410000,,474841.8,-861310.3,55309000,8171026.4,,65827755.5,,,5.8293,,18.95138707
BFA,2001,,13.04109154,28168421.4,1324208056,,1324208056,0,,68952000,,14467423.1,,103130000,20426811.8,,122811167.4,,,4.1867,,13.94105803
BFA,2002,,13.65748488,33469275.8,1414004956,,1414004956,0,,65344000,,6399235.2,0,110220000,2681924,,113696033.9,,,.718,,14.32454558
BFA,2003,,12.03231726,42548849.8,1605073795,,1605073795,0,,52337000,,1432371.2,-156838.1,89646000,2790450.8,,94674215.5,,,.8043,,12.12486917
BFA,2004,,8.939947391,48386698.5,1791114464,,1791114464,0,,128550000,,2237838.9,-180805.5,180528000,14095731.6,,218403974.6,,,1.2391,,9.050503837000001
BFA,2005,,7.830508795,41200553.1,1872133149,,1872133149,1213150,,102046000,,11521774.7,-11818.7,178539000,20791916.7,,183092168.6,7.061789677,3.808779448,1.1048,,7.947061041
BFA,2006,,6.03362672,43278730.7,1005773750,,1005773750,1276500,,121811000,,18981156.7,0,217488000,48241515.9,,245835306.2,5.938226964,12.22023612,7.7857,,6.239440067
BFA,2007,,4.748868554,37541154.8,1762203756,489000000,1273203756,-111773.47,,79998000,,765446.4,0,158789000,24197777.6,440000000,196815298.1,4.663450812,19.25642868,7.8705,,14.39473474
BFA,2008,,3.939641015,41941707.7,2597553011,1075000000,1522553011,11359426.33,,159220000,,18238757.3,,229575000,31621261.4,479000000,270854410,3.907071487,.79462235,.3188,,18.96131865
BFA,2009,708171000,3.881325983,43958274.5,3522408274,1778000000,1744408274,-6236624.77,,89672000,,54168899.9,,184515000,16537685.7,703000000,195006325.2,3.839079102,0,0,,27.19966893
BFA,2010,859320000,2.511400535,48447779.6,4590342259,2622000000,1968342259,-2647627.27,,66579000,,20166724.2,,231280000,101342790,844000000,241443695.2,2.443521948,0,0,,22.33282751
BFA,2011,,2.330532707,64088290.9,5744888725,3636000000,2108888725,-4066878.8,,64494000,,16543456.7,,134850000,28071909.3,1013000000,146607890.8,2.197041186,0,0,,21.04821843
BFA,2012,,2.134782202,65217612.2,7138196596,4851000000,2287196596,-2604493.53,,59714000,,67894646.5,,117796000,35585322.1,1216000000,135093445.4,1.922102022,0,0,,23.5904937
BFA,2013,1454516000,2.473387062,73305570.3,8642106693,6310000000,2332106693,-2679286,,24412000,,2059203.9,,25549000,-10255840,1459000000,16406307.9,2.233958003,0,0,,31.30235956
BFA,2014,3017836000,2.93619875,88065537.40000001,10019601691,7701000000,2318601691,0,,84579000,,-3118284.5,,174878000,75673644.5,3022000000,158177452.8,2.612478385,0,0,,37.19948988
BFA,2015,2283779000,4.064344288,98633384,12318844324,9932000000,2386844324,1121637,,130234000,,12448011.8,,162815000,-496033.2,2288000000,199453976,3.384445087,0,0,,55.19128504
BFA,2016,1543243000,3.677459092,106664104.3,9965828030,7392000000,2573828030,-1281937,,166482000,,11943382.8,,199428000,15464230,1547000000,190868353.5,3.093091976,0,0,,35.83672226
BFA,2017,301344000,3.591977868,116277506.6,12487101904,9611000000,2876101904,-1780974,,78135000,,-18478290,,128696000,31153493,304000000,102546207.5,2.962224233,0,0,,40.32760687
BFA,2018,-2301733000,3.157652535,115722135.8,10355022497,7311000000,3044022497,443210,,166282000,,-8616543.300000001,,245303000,53930066.4,-2300000000,261243612.5,2.436253004,0,0,,63.1575913
BFA,2019,-1837374000,3.497547806,130322387,8849780243,5475359000,3374421243,2043783,,227790000,,42206279.4,0,369180000,117559120.8,-1835641000,366372464.1,2.78329258,0,0,,49.45010107
BFA,2020,-205910000,2.955686365,136811040.7,9294688175,5271094000,4023594175,781652,,229717000,,139153478.4,7490522.1,339414000,63125372.2,-204177000,425380605.6,2.441335128,0,0,,38.68095746
BFA,2021,111431000,2.629599217,143335293.8,9709646104,5382000000,4327646104,-579883,,238636000,,-29220693,3740909.8,484786000,239803242.4,110906000,520788631.9,2.182644171,0,0,,7.564754133
BFA,2022,-451569000,3.435484432,183740804.5,9316997706,4932164000,4384833706,6629855,,147118000,,-23341809.9,8564819.6,238280000,85717620.59999999,-449836000,287259296.2,3.004041424,0,0,,17.56242848
BFA,2023,-37237000,4.133620867,230033178.5,9765043223,4864904000,4900139223,11463745.76,,175390000,,93458141.3,3739339.5,332191000,151299505,-67260000,375677771.4,3.687923469,0,0,,13.78358867
BFA,2024,,,,,,,,,,,,,,,,,,,,,
BGD,1960,,,,,,,,,,,,,,,,,,,,,
BGD,1961,,,,,,,,,,,,,,,,,,,,,
BGD,1962,,,,,,,,,,,,,,,,,,,,,
BGD,1963,,,,,,,,,,,,,,,,,,,,,
BGD,1964,,,,,,,,,,,,,,,,,,,,,
BGD,1965,,,,,,,,,,,,,,,,,,,,,
BGD,1966,,,,,,,,,,,,,,,,,,,,,
BGD,1967,,,,,,,,,,,,,,,,,,,,,
BGD,1968,,,,,,,,,,,,,,,,,,,,,
BGD,1969,,,,,,,,,,,,,,,,,,,,,
BGD,1970,,,,,,,,,,,,,,,,,,,,,
BGD,1971,,,,,,,,,,,,,,,,,,,,,
BGD,1972,,,,78648255,,78648255,0,,2265000,67856000,,,2265000,,,64400913.7,,,0,0,
BGD,1973,13311000,,10213356.9,421896516.2,,421896516.2,0,,51626000,906000,,5146000,56772000,,,289292003.5,,,.1065,.370530314,
BGD,1974,1321000,,25586671.3,1092747748,,1092747748,0,,75305000,0,85796732.7,360000,75665000,,,507562363.7,,,.0036,.033294428,
BGD,1975,-3010000,,74956712.3,1476222180,,1476222180,0,,90795000,,46536211.4,986000,108217000,,,427876943.5,,,.1204,1.365691451,
BGD,1976,-1402000,28.70320489,65656665.9,1715457427,,1715457427,0,,124726000,,75242646.8,154000,128561000,,,270217561.4,13.57697957,.664360577,.1611,1.112003768,28.70320489
BGD,1977,-812000,24.81041035,77719789.90000001,2050904857,,2050904857,0,,88207000,,-32457343.6,37000,112899000,13900000,,266436754.7,13.70428975,4.768936853,1.1598,11.19906997,25.07490456
BGD,1978,12088000,19.52109894,97363152.3,2448475244,,2448475244,0,,103093000,,25856932.6,-463000,139354000,438337.4,,318681296.7,14.21807018,10.57290223,2.5673,22.53644857,20.1344305
BGD,1979,9008000,22.03114571,92616068.8,2511352006,,2511352006,0,,162568000,,41437574.9,-467000,225800000,22116320.7,,486340183.7,10.86272544,13.03650503,3.7461,26.87078285,23.32131038
BGD,1980,,20.5945963,76089037.5,3166017460,,3166017460,0,,155714000,,92418405.5,380000,275231000,62540795.7,,550709075.7,7.03853736,19.61481093,5.5768,64.02559223999999,22.08391008
BGD,1981,,16.90096551,107541177.1,3516928364,,3516928364,0,,160849000,,84275022,-331000,264263000,59461409.4,,474133187.5,10.30656401,21.85533906,5.4176,142.8106876,18.91356989
BGD,1982,21408000,19.48899019,125970371.2,4183903176,,4183903176,0,,189388000,,109217437,-673000,280899000,60983336,,746819629.2,12.40424047,20.58441959,4.2313,100.2468065,21.63562547
BGD,1983,45756000,19.96472187,134611362.2,4610914303,,4610914303,0,,200716000,,46793796.9,-660000,265785000,17454965.1,,427618766.4,13.79522019,17.4265214,3.1806,31.15054438,21.90162866
BGD,1984,27561000,22.45833831,164747155.4,4946492995,,4946492995,0,,247666000,,-70893969.59999999,-675000,352404000,28066022,,490171281.5,13.6453369,11.01920171,2.4006,32.60110165,23.70900991
BGD,1985,-5183000,24.50060074,191287305.8,5875143939,,5875143939,0,-924000,272222000,,1306001.1,-614000,431209000,18172328.9,,546924326.6,14.95616636,10.55941378,2.0681,37.9152158,25.54830554
BGD,1986,54416000,37.37511163,242249847.3,7249992405,,7249992405,0,-1363000,320607000,,-37600564,-632000,519024000,60141344.2,,818309049.3,21.50026525,11.09942059,1.5802,28.75886963,38.5377686
BGD,1987,1960000,36.40971766,298817095.2,8823135432,,8823135432,0,-1238000,324489000,,190777912.6,-653000,468603000,-19018441.8,,738911671.6,21.77582403,5.39506488,.7602,8.448872262,37.27691138
BGD,1988,-22556000,30.33767894,350608635.1,9386544712,,9386544712,0,-1335000,288635000,,41502163.2,-187000,526951000,3120562.8,,783017224.2,21.59563073,3.06705186,.4845,4.625517659,30.65181187
BGD,1989,-29981000,29.14403239,334258099.6,9914962124,,9914962124,0,-1933000,292597000,,-99849386.09999999,-192000,594361000,-16402984.2,,936978297.4,19.34487504,3.908351381,.631,12.69168875,29.64464306
BGD,1990,55741000,33.72633586,479062821.7,11510306593,,11510306593,0,-1568000,441421000,,-140623222.2,-273000,748607000,19072366,,806985977.9,22.5105873,7.32717203,1.2686,23.64199039,34.16126419
BGD,1991,34298000,26.66925229,418726248.3,12052093948,,12052093948,0,-1249000,240841000,,94631888.7,-247000,478576000,-19930152,,496102260.1,19.12285669,9.982021974,1.6816,16.71115369,27.21728165
BGD,1992,-18617000,19.37269066,423590067.1,12462815388,,12462815388,0,-3366000,302968000,,33790137,-271000,584322000,-17403844.3,,632647933.2,15.79806998,8.678441525,1.7329,12.55438297,19.71312542
BGD,1993,-9961000,16.04220856,412849092.9,13290060171,,13290060171,0,-3551000,277299000,,-50236975.2,-283000,478770000,-5106516.9,,393703318.4,13.00626639,4.814959071,1.082,6.247026635,16.27297302
BGD,1994,-25461000,14.34891167,469496820.6,14626859288,,14626859288,0,-3944000,372598000,,-54376924.7,-277000,727174000,3472258.1,,716759585.8,12.77644905,5.293939218,1.2558,6.127523041,14.54046446
BGD,1995,-19886000,15.78379224,678116158.6,14914016246,,14914016246,0,-4606000,156218000,,-60642511.4,-228000,389807000,-6617186.4,,264119687.6,14.42317645,4.236840587,1.2659,8.383142327,15.98593736
BGD,1996,-29783000,13.59709485,555815697.6,14489520832,,14489520832,0,-4539000,229485000,,-86262766.40000001,-212000,531615000,43868399.3,,562261771.4,11.71740117,3.437656648,1.0749,8.722505648,13.80643365
BGD,1997,-22420000,11.86023891,547247073.1,13710476215,,13710476215,0,-4479000,246049000,,-116289428.9,-205000,396199000,6570602.9,,255291028.4,9.748214215999999,3.117307651,1.2274,10.8643231,12.01610429
BGD,1998,-21026000,10.27674191,509352086,14936065156,,14936065156,0,-4448000,288646000,,31989384.2,-216000,500197000,34958201.8,,382952524.8,8.550731903000001,2.513419726,.9654,7.734384874,10.4164808
BGD,1999,,10.69683231,575368714.7,15812878155,,15812878155,0,-4947000,339491000,,-92803562.3,,562186000,13523566.8,,381039125.9,9.089136681999999,4.017035525,1.5458,15.55884374,10.91889164
BGD,2000,45742000,10.29935023,654049759.7,14989457890,,14989457890,0,-5330000,275158000,,-87054330,,481736000,15705282.3,,328926709.3,8.968663059000001,4.579977926,2.1409,22.0347341,10.60419301
BGD,2001,48455000,9.41040589,582951423.4,14410233961,,14410233961,8682900,-5211000,217891000,,-60233825.5,238000,360920000,25258609.9,,359892504.6,8.431996692,5.21790266,2.4083,27.62978882,9.641835029999999
BGD,2002,,10.00798962,604603723.2,15980821850,,15980821850,-3972100,-5537000,195044000,,-85866548.59999999,6249000,309900000,29257646.2,,214727460.8,8.709632054,8.241312531,3.4282,33.22776555,10.18085588
BGD,2003,-17068000,8.092274423999999,571263486.9,17679803154,,17679803154,5582800,-6302000,394732000,,-3410274.4,20502000,516697000,11618126.2,,481999103.4,7.154384585,7.727179122,3.3459,23.5081318,8.255083709000001
BGD,2004,-13992000,6.828652837,627199811,18698272323,,18698272323,4681600,-7278000,474331000,,146719237.5,71774000,523064000,4881849.5,,472940827.4,6.802612067,7.722355312,3.6116,22.09972441,7.085518766
BGD,2005,-15835000,7.283966216,773693148.8,17438901410,,17438901410,29270284.1,,394491000,,99395435.2,86054000,523731000,-14131729,,321239009.9,7.252443637,6.453186198,3.7206,24.36909412,7.612517852
BGD,2006,-23558000,5.006571585,649184268.3,18435555273,,18435555273,-11766536.72,,225651000,,148538587.1,81765000,413797000,290765.9,,603506723.8,4.968901757,9.016494323,5.8429,30.3830371,5.456860516
BGD,2007,99633000,6.377685353,909238745.4,19578898590,145400000,19433498590,-14264840.74,,408316000,,0,55365000,624414000,33537290.8,116320000,365303676.9,6.343056344,9.555129837000001,6.3635,25.95311078,7.033750716
BGD,2008,256586000,4.804684095,834217381,20695222502,421660000,20273562502,-20787579.15,,607048000,,202929491.2,121724000,1016532000,-10716839.1,276260000,1118692353,4.716451817,10.70556739,8.1104,32.71849523,5.31864338
BGD,2009,351078000,5.425813499,896557161,21969810225,785160000,21184650225,-5490163.52,,62841000,,-22905864.9,701932000,952031000,37463541.7,363500000,809329853,5.248337501,11.31743133,7.6181,18.69470936,6.042068946
BGD,2010,281522000,4.453991511,918890219.3,22221502685,1075960000,21145542685,-2290163.52,,83496000,,-45320196,166118000,351699000,27120839.1,290800000,252937670.9,4.222049859,13.54225387,11.092,26.37487129,5.083041824
BGD,2011,368485000,4.924725469,1202021102,23671936349,1454000000,22217936349,82354918.26000001,,92930000,,-131210803.2,99423000,290450000,41647373.4,378040000,124802203,4.427671613,7.747686133,7.7768,22.92527135,5.629773752
BGD,2012,328224000,5.294682759,1269637787,25985936408,1789150000,24196786408,23775758,,434299000,,-59102622.2,222284000,805093000,32831258.2,335151000,1353331183,4.572299643,7.048270273,6.7127,15.34523579,6.03570025
BGD,2013,422630000,5.295308042,1541616512,27225488366,2190812000,25034676366,94032545,,397344000,,277410485,-25892740,573008000,107923908,401662000,1097949757,4.852805184,11.75029827,11.5015,20.63713002,6.110143101
BGD,2014,939718000,5.081501081,1609835334,29650821314,3108674000,26542147314,91393690,,522412000,,65233235.1,-104264000,721251000,113134697.7,917862000,1243529662,4.857941773,12.52638237,11.7686,18.59793577,6.134665739
BGD,2015,233722000,3.82473073,1295351569,30461365483,3357630000,27103735483,111642363,,599353000,,208747995.4,247542000,1028362000,78220218.3,237298000,1283992302,3.689624242,18.88694814,17.1317,24.11814715,5.001059616
BGD,2016,-256636000,3.304882749,1228505952,32188161693,3092904000,29095257693,54446223,,715559000,,-18712967.8,374588000,1395519000,199587618.2,-253068000,2196342573,3.253734129,20.75021875,18.8471,24.26792895,4.92101274
BGD,2017,299338000,3.819663901,1487362465,38678088723,3395368000,35282720723,32805246,,1020424000,,-12677563,364931000,1591019000,60048710.5,302464000,3757225783,3.786426459,27.40465395,21.0795,32.2000075,5.799034299
BGD,2018,1838613000,3.955101298,1708275874,46559715242,5237873000,41321842242,133654335,,1218515000,,-51782805.2,461042000,1963754000,68132575.59999999,1842420000,5827434444,3.837249963,20.28248073,15.8062,28.19187531,6.795393733
BGD,2019,-321473000,4.490829505,1906617305,51317230489,4900650000,46416580489,-50983527,,1387295000,,-113686282.5,784105000,2361872000,110970651,-317864000,4825818089,4.223474857,21.56980982,15.5876,29.78056096,13.14455259
BGD,2020,720772000,5.545727477,2014023225,60455488716,5625101000,54830387716,62104012,,1100721000,,615564336.6,797247000,2552097000,84896033.09999999,724451000,6460295865,5.205057093,28.39348128,14.9372,25.44826126,10.45921111
BGD,2021,2644526000,5.980164018,2778837175,70088387624,7614890000,62473497624,-129501504,,782749000,,-182333021.3,1517655000,2952546000,257652160.2,1989789000,7012532924,5.599572717,36.44911971,19.7733,39.18117053,11.44175596
BGD,2022,318940000,5.944589527,3401736185,75509404887,7892419000,67616985887,-51444583,,1277834000,,-159051376.1,767663000,2935786000,140497251.7,277529000,8333696050,5.94475625,32.38250806,19.0991,54.90846278,11.23921622
BGD,2023,1235431000,8.048373654000001,4425171149,83284235879,9153010000,74131225879,42541191.39,,1412170000,,921914617.6,1062259000,3700687000,83566025.09999999,1260591000,7361472910,9.263717095000001,29.79161089,14.028,65.10200971,12.59397994
BGD,2024,,,,,,,,,,,,,,,,,,,,,
BGR,1960,,,,,,,,,,,,,,,,,,,,,
BGR,1961,,,,,,,,,,,,,,,,,,,,,
BGR,1962,,,,,,,,,,,,,,,,,,,,,
BGR,1963,,,,,,,,,,,,,,,,,,,,,
BGR,1964,,,,,,,,,,,,,,,,,,,,,
BGR,1965,,,,,,,,,,,,,,,,,,,,,
BGR,1966,,,,,,,,,,,,,,,,,,,,,
BGR,1967,,,,,,,,,,,,,,,,,,,,,
BGR,1968,,,,,,,,,,,,,,,,,,,,,
BGR,1969,,,,,,,,,,,,,,,,,,,,,
BGR,1970,,,,,,,,,,,,,,,,,,,,,
BGR,1971,,,,,,,,,,,,,,,,,,,,,
BGR,1972,,,,,,,,,,,,,,,,,,,,,
BGR,1973,,,,,,,,,,,,,,,,,,,,,
BGR,1974,,,,,,,,,,,,,,,,,,,,,
BGR,1975,,,,,,,,,,,,,,,,,,,,,
BGR,1976,,,,,,,,,,,,,,,,,,,,,
BGR,1977,,,,,,,,,,,,,,,,,,,,,
BGR,1978,,,,,,,,,,,,,,,,,,,,,
BGR,1979,,,,,,,,,,,,,,,,,,,,,
BGR,1980,,,,,,,,,,,,,,,,,,,,,
BGR,1981,,,,,,,,,,,,,,,,,,,,,
BGR,1982,,,,,,,,,,,,,,,,,,,,,
BGR,1983,,,,,,,,,,,,,,,,,,,,,
BGR,1984,,,,,,,,,,,,,,,,,,,,,
BGR,1985,,,,,,,,,,,,,,,,,,,,,
BGR,1986,,,,,,,,,,,,,,,,,,,,,
BGR,1987,,,,,,,,,,,,,,,,,,,,,
BGR,1988,,,,,,,,,,,,,,,,,,,,,
BGR,1989,,,,,,,,,,,,,,,,,,,,,
BGR,1990,,,,,,,,,,,,,,,,,,,,,
BGR,1991,,,,,,,,,,,,,,,,,,,,,
BGR,1992,,,,,,,,,,,,,,,,,,,,,
BGR,1993,,,,,,,,,,,,,,,,,,,,,
BGR,1994,,,,,,,,,,,,,,,,,,,,,
BGR,1995,,,,,,,,,,,,,,,,,,,,,
BGR,1996,,,,,,,,,,,,,,,,,,,,,
BGR,1997,,,,,,,,,,,,,,,,,,,,,
BGR,1998,,,,,,,,,,,,,,,,,,,,,
BGR,1999,,,,,,,,,,,,,,,,,,,,,
BGR,2000,,,,,,,,,,,,,,,,,,,,,
BGR,2001,,,,,,,,,,,,,,,,,,,,,
BGR,2002,,,,,,,,,,,,,,,,,,,,,
BGR,2003,,,,,,,,,,,,,,,,,,,,,
BGR,2004,,,,,,,,,,,,,,,,,,,,,
BGR,2005,,,,,,,,,,,,,,,,,,,,,
BGR,2006,,,,,,,,,,,,,,,,,,,,,
BGR,2007,,,,,,,,,,,,,,,,,,,,,
BGR,2008,,,,,,,,,,,,,,,,,,,,,
BGR,2009,,,,,,,,,,,,,,,,,,,,,
BGR,2010,,,,,,,,,,,,,,,,,,,,,
BGR,2011,,,,,,,,,,,,,,,,,,,,,
BGR,2012,,,,,,,,,,,,,,,,,,,,,
BGR,2013,,,,,,,,,,,,,,,,,,,,,
BGR,2014,,,,,,,,,,,,,,,,,,,,,
BGR,2015,,,,,,,,,,,,,,,,,,,,,
BGR,2016,,,,,,,,,,,,,,,,,,,,,
BGR,2017,,,,,,,,,,,,,,,,,,,,,
BGR,2018,,,,,,,,,,,,,,,,,,,,,
BGR,2019,,,,,,,,,,,,,,,,,,,,,
BGR,2020,,,,,,,,,,,,,,,,,,,,,
BGR,2021,,,,,,,,,,,,,,,,,,,,,
BGR,2022,,,,,,,,,,,,,,,,,,,,,
BGR,2023,,,,,,,,,,,,,,,,,,,,,
BGR,2024,,,,,,,,,,,,,,,,,,,,,
BHR,1960,,,,,,,,,,,,,,,,,,,,,
BHR,1961,,,,,,,,,,,,,,,,,,,,,
BHR,1962,,,,,,,,,,,,,,,,,,,,,
BHR,1963,,,,,,,,,,,,,,,,,,,,,
BHR,1964,,,,,,,,,,,,,,,,,,,,,
BHR,1965,,,,,,,,,,,,,,,,,,,,,
BHR,1966,,,,,,,,,,,,,,,,,,,,,
BHR,1967,,,,,,,,,,,,,,,,,,,,,
BHR,1968,,,,,,,,,,,,,,,,,,,,,
BHR,1969,,,,,,,,,,,,,,,,,,,,,
BHR,1970,,,,,,,,,,,,,,,,,,,,,
BHR,1971,,,,,,,,,,,,,,,,,,,,,
BHR,1972,,,,,,,,,,,,,,,,,,,,,
BHR,1973,,,,,,,,,,,,,,,,,,,,,
BHR,1974,,,,,,,,,,,,,,,,,,,,,
BHR,1975,,,,,,,,,,,,,,,,,,,,,
BHR,1976,,,,,,,,,,,,,,,,,,,,,
BHR,1977,,,,,,,,,,,,,,,,,,,,,
BHR,1978,,,,,,,,,,,,,,,,,,,,,
BHR,1979,,,,,,,,,,,,,,,,,,,,,
BHR,1980,,,,,,,,,,,,,,,,,,,,,
BHR,1981,,,,,,,,,,,,,,,,,,,,,
BHR,1982,,,,,,,,,,,,,,,,,,,,,
BHR,1983,,,,,,,,,,,,,,,,,,,,,
BHR,1984,,,,,,,,,,,,,,,,,,,,,
BHR,1985,,,,,,,,,,,,,,,,,,,,,
BHR,1986,,,,,,,,,,,,,,,,,,,,,
BHR,1987,,,,,,,,,,,,,,,,,,,,,
BHR,1988,,,,,,,,,,,,,,,,,,,,,
BHR,1989,,,,,,,,,,,,,,,,,,,,,
BHR,1990,,,,,,,,,,,,,,,,,,,,,
BHR,1991,,,,,,,,,,,,,,,,,,,,,
BHR,1992,,,,,,,,,,,,,,,,,,,,,
BHR,1993,,,,,,,,,,,,,,,,,,,,,
BHR,1994,,,,,,,,,,,,,,,,,,,,,
BHR,1995,,,,,,,,,,,,,,,,,,,,,
BHR,1996,,,,,,,,,,,,,,,,,,,,,
BHR,1997,,,,,,,,,,,,,,,,,,,,,
BHR,1998,,,,,,,,,,,,,,,,,,,,,
BHR,1999,,,,,,,,,,,,,,,,,,,,,
BHR,2000,,,,,,,,,,,,,,,,,,,,,
BHR,2001,,,,,,,,,,,,,,,,,,,,,
BHR,2002,,,,,,,,,,,,,,,,,,,,,
BHR,2003,,,,,,,,,,,,,,,,,,,,,
BHR,2004,,,,,,,,,,,,,,,,,,,,,
BHR,2005,,,,,,,,,,,,,,,,,,,,,
BHR,2006,,,,,,,,,,,,,,,,,,,,,
BHR,2007,,,,,,,,,,,,,,,,,,,,,
BHR,2008,,,,,,,,,,,,,,,,,,,,,
BHR,2009,,,,,,,,,,,,,,,,,,,,,
BHR,2010,,,,,,,,,,,,,,,,,,,,,
BHR,2011,,,,,,,,,,,,,,,,,,,,,
BHR,2012,,,,,,,,,,,,,,,,,,,,,
BHR,2013,,,,,,,,,,,,,,,,,,,,,
BHR,2014,,,,,,,,,,,,,,,,,,,,,
BHR,2015,,,,,,,,,,,,,,,,,,,,,
BHR,2016,,,,,,,,,,,,,,,,,,,,,
BHR,2017,,,,,,,,,,,,,,,,,,,,,
BHR,2018,,,,,,,,,,,,,,,,,,,,,
BHR,2019,,,,,,,,,,,,,,,,,,,,,
BHR,2020,,,,,,,,,,,,,,,,,,,,,
BHR,2021,,,,,,,,,,,,,,,,,,,,,
BHR,2022,,,,,,,,,,,,,,,,,,,,,
BHR,2023,,,,,,,,,,,,,,,,,,,,,
BHR,2024,,,,,,,,,,,,,,,,,,,,,
BHS,1960,,,,,,,,,,,,,,,,,,,,,
BHS,1961,,,,,,,,,,,,,,,,,,,,,
BHS,1962,,,,,,,,,,,,,,,,,,,,,
BHS,1963,,,,,,,,,,,,,,,,,,,,,
BHS,1964,,,,,,,,,,,,,,,,,,,,,
BHS,1965,,,,,,,,,,,,,,,,,,,,,
BHS,1966,,,,,,,,,,,,,,,,,,,,,
BHS,1967,,,,,,,,,,,,,,,,,,,,,
BHS,1968,,,,,,,,,,,,,,,,,,,,,
BHS,1969,,,,,,,,,,,,,,,,,,,,,
BHS,1970,,,,,,,,,,,,,,,,,,,,,
BHS,1971,,,,,,,,,,,,,,,,,,,,,
BHS,1972,,,,,,,,,,,,,,,,,,,,,
BHS,1973,,,,,,,,,,,,,,,,,,,,,
BHS,1974,,,,,,,,,,,,,,,,,,,,,
BHS,1975,,,,,,,,,,,,,,,,,,,,,
BHS,1976,,,,,,,,,,,,,,,,,,,,,
BHS,1977,,,,,,,,,,,,,,,,,,,,,
BHS,1978,,,,,,,,,,,,,,,,,,,,,
BHS,1979,,,,,,,,,,,,,,,,,,,,,
BHS,1980,,,,,,,,,,,,,,,,,,,,,
BHS,1981,,,,,,,,,,,,,,,,,,,,,
BHS,1982,,,,,,,,,,,,,,,,,,,,,
BHS,1983,,,,,,,,,,,,,,,,,,,,,
BHS,1984,,,,,,,,,,,,,,,,,,,,,
BHS,1985,,,,,,,,,,,,,,,,,,,,,
BHS,1986,,,,,,,,,,,,,,,,,,,,,
BHS,1987,,,,,,,,,,,,,,,,,,,,,
BHS,1988,,,,,,,,,,,,,,,,,,,,,
BHS,1989,,,,,,,,,,,,,,,,,,,,,
BHS,1990,,,,,,,,,,,,,,,,,,,,,
BHS,1991,,,,,,,,,,,,,,,,,,,,,
BHS,1992,,,,,,,,,,,,,,,,,,,,,
BHS,1993,,,,,,,,,,,,,,,,,,,,,
BHS,1994,,,,,,,,,,,,,,,,,,,,,
BHS,1995,,,,,,,,,,,,,,,,,,,,,
BHS,1996,,,,,,,,,,,,,,,,,,,,,
BHS,1997,,,,,,,,,,,,,,,,,,,,,
BHS,1998,,,,,,,,,,,,,,,,,,,,,
BHS,1999,,,,,,,,,,,,,,,,,,,,,
BHS,2000,,,,,,,,,,,,,,,,,,,,,
BHS,2001,,,,,,,,,,,,,,,,,,,,,
BHS,2002,,,,,,,,,,,,,,,,,,,,,
BHS,2003,,,,,,,,,,,,,,,,,,,,,
BHS,2004,,,,,,,,,,,,,,,,,,,,,
BHS,2005,,,,,,,,,,,,,,,,,,,,,
BHS,2006,,,,,,,,,,,,,,,,,,,,,
BHS,2007,,,,,,,,,,,,,,,,,,,,,
BHS,2008,,,,,,,,,,,,,,,,,,,,,
BHS,2009,,,,,,,,,,,,,,,,,,,,,
BHS,2010,,,,,,,,,,,,,,,,,,,,,
BHS,2011,,,,,,,,,,,,,,,,,,,,,
BHS,2012,,,,,,,,,,,,,,,,,,,,,
BHS,2013,,,,,,,,,,,,,,,,,,,,,
BHS,2014,,,,,,,,,,,,,,,,,,,,,
BHS,2015,,,,,,,,,,,,,,,,,,,,,
BHS,2016,,,,,,,,,,,,,,,,,,,,,
BHS,2017,,,,,,,,,,,,,,,,,,,,,
BHS,2018,,,,,,,,,,,,,,,,,,,,,
BHS,2019,,,,,,,,,,,,,,,,,,,,,
BHS,2020,,,,,,,,,,,,,,,,,,,,,
BHS,2021,,,,,,,,,,,,,,,,,,,,,
BHS,2022,,,,,,,,,,,,,,,,,,,,,
BHS,2023,,,,,,,,,,,,,,,,,,,,,
BHS,2024,,,,,,,,,,,,,,,,,,,,,
BIH,1960,,,,,,,,,,,,,,,,,,,,,
BIH,1961,,,,,,,,,,,,,,,,,,,,,
BIH,1962,,,,,,,,,,,,,,,,,,,,,
BIH,1963,,,,,,,,,,,,,,,,,,,,,
BIH,1964,,,,,,,,,,,,,,,,,,,,,
BIH,1965,,,,,,,,,,,,,,,,,,,,,
BIH,1966,,,,,,,,,,,,,,,,,,,,,
BIH,1967,,,,,,,,,,,,,,,,,,,,,
BIH,1968,,,,,,,,,,,,,,,,,,,,,
BIH,1969,,,,,,,,,,,,,,,,,,,,,
BIH,1970,,,,,,,,,,,,,,,,,,,,,
BIH,1971,,,,,,,,,,,,,,,,,,,,,
BIH,1972,,,,,,,,,,,,,,,,,,,,,
BIH,1973,,,,,,,,,,,,,,,,,,,,,
BIH,1974,,,,,,,,,,,,,,,,,,,,,
BIH,1975,,,,,,,,,,,,,,,,,,,,,
BIH,1976,,,,,,,,,,,,,,,,,,,,,
BIH,1977,,,,,,,,,,,,,,,,,,,,,
BIH,1978,,,,,,,,,,,,,,,,,,,,,
BIH,1979,,,,,,,,,,,,,,,,,,,,,
BIH,1980,,,,,,,,,,,,,,,,,,,,,
BIH,1981,,,,,,,,,,,,,,,,,,,,,
BIH,1982,,,,,,,,,,,,,,,,,,,,,
BIH,1983,,,,,,,,,,,,,,,,,,,,,
BIH,1984,,,,,,,,,,,,,,,,,,,,,
BIH,1985,,,,,,,,,,,,,,,,,,,,,
BIH,1986,,,,,,,,,,,,,,,,,,,,,
BIH,1987,,,,,,,,,,,,,,,,,,,,,
BIH,1988,,,,,,,,,,,,,,,,,,,,,
BIH,1989,,,,,,,,,,,,,,,,,,,,,
BIH,1990,,,,,,,,,,,,,,,,,,,,,
BIH,1991,,,,,,,,,,,,,,,,,,,,,
BIH,1992,,,,,,,,,,,,,,,,,,,,,
BIH,1993,,,,,,,,,,,,,,,,,,,,,
BIH,1994,,,,,,,,,,,,,,,,,,,,,
BIH,1995,,,,,,,,,,,,,,,,,,,,,
BIH,1996,,,,,,,,-25053000,109559000,,,,,,,,,,,,
BIH,1997,,,,,,,,,65203000,,,,,,,,,,,,
BIH,1998,,,,,,,,,134857000,,,,,,,,,,,,
BIH,1999,,8.041845285000001,142922688.9,2247180639,3014000,2244166639,0,0,67956000,,18979408.1,10408631.6,114061000,18651529.1,,122977984.5,6.842108359,1.897068134,1.645,8.759282476999999,8.20269787
BIH,2000,,12.67419291,258802712.9,2621526988,662513000,1959013988,0,0,44108000,,15841250,15276527.4,-75886000,-150566171.3,3696000,-71870555.09999999,11.51981429,1.700470004,1.3686,7.692410532,14.22231865
BIH,2001,,11.97900099,257127529.3,2492361238,707457000,1784904238,7859500,-5327000,61736000,,10095623.5,7985902.4,-110761000,-172990346.4,48583000,-101500440.9,11.39528985,1.772706311,1.4986,3.243770329,13.88594548
BIH,2002,,5.935028068,106296641.9,2681738491,621642000,2060096491,2316700,-23107000,96844000,,18178644.8,-1953589.5,95270000,25837677.6,35897000,94789267.2,4.746771752,15.30315142,10.7376,25.64536306,7.988797366
BIH,2003,,5.224801211,95391494.40000001,4265262733,1896478000,2368784733,19342900,-24097000,48193000,,-17174466.4,-1770447.8,75146000,54659761.3,294053000,85264592.90000001,3.344226291,3.646022493,2.2939,5.734704434,7.644217598
BIH,2004,,4.11914409,97700467.09999999,5192170115,2434731000,2757439115,17697400,-24381000,208546000,,-29786969.2,17716826.8,253255000,53368018.2,531654000,249785073,2.69532771,6.95209146,4.5123,10.3820488,6.951514431
BIH,2005,1094380000,3.58882067,108168505.9,6161232413,3532447000,2628785413,12880167.34,-23603000,55591000,,-39405089.8,-3795092.1,95742000,69505985,1097716000,109634711.9,2.559248407,19.42472002,11.6067,32.22622389,7.344203448
BIH,2006,1146480000,3.360954042,129002368,7478136967,4682290000,2795846967,22502517.91,-23618000,22866000,,-43921513.9,2454937.6,37831000,40358343.5,1149843000,64570933.9,2.455431281,22.09847587,13.3597,31.62617061,7.438151392
BIH,2007,2502620000,3.185272111,151123235.5,10226928362,7180021000,3046907362,-7068177.74,-23801000,47963000,,-18370713.4,20442659.8,53035000,8467929.800000001,2497731000,63965981.9,2.809255069,25.78317469,11.9069,27.51012032,7.994103733
BIH,2008,1753184000,2.738347903,172920337.5,11988930054,8906832000,3082098054,-40660509.01,-24630000,16534000,,-2371133.3,56915945.9,55263000,6442966,1726811000,70061084.5,2.696646386,18.12107902,8.8147,25.93850824,7.474530505
BIH,2009,36260000,3.323926584,175396037.1,12084831569,8440337000,3644494569,-15154820.89,-24695000,18022000,,281703576.2,129470011,184798000,69046487.5,33505000,206602903.7,3.291733447,27.34415048,10.3477,31.84621584,8.796003447
BIH,2010,-100537000,3.663202212,202654241.2,12439121861,8638340000,3800781861,-1708157.09,25747000,97193000,,237389322.9,58559421.3,275853000,99160406.09999999,-101997000,317028219.2,3.560896256,20.18941116,8.0032,26.04755975,10.05663874
BIH,2011,6371964000,3.729610331,239958635.7,10313656410,6376561000,3937095410,-13205543.08,15612000,16212000,,0,53445790.1,172164000,92666790,6376560000,238650066.1,3.610556086,19.98185424,10.7028,31.26515113,22.20546773
BIH,2012,398340000,4.531899917,237306794.9,11038882519,6777203000,4261679519,-11265875.91,1111000,-1454000,,120440011.4,134559468.1,298678000,164461739.3,400642000,307229808.2,3.865053786,18.4371305,8.6685,25.78604405,18.9291632
BIH,2013,339773000,7.044478234,258499548.6,11971010967,7121446000,4849564967,21156321,-13603000,-2318000,,-41117211.8,191421269.7,463464000,287964010.7,344243000,501669373.9,3.846789081,15.17854847,7.3703,20.46506763,20.69240377
BIH,2014,-457158000,7.806523514,313636810.9,11457581578,6677915000,4779666578,-12041240,34668000,-8087000,,98934109.8,92356051.09999999,412009000,293072287.2,-443530000,448925809.5,4.509040502,11.2270557,5.9473,16.0677043,21.6085631
BIH,2015,-910301000,7.374378368,403166455,10209052514,5782015000,4427037514,-5420337,57662000,-680000,,-53824324.5,87639354.90000001,84362000,-60258877.2,-895900000,51043266.3,6.413324132,10.28504721,5.5471,13.49530451,30.80869296
BIH,2016,6691000,6.535273176,335997319.7,10247092300,5817655000,4429437300,-8193798,-12794000,13126000,,-5875777.3,8565870,169195000,160297218.9,35641000,175048568.7,5.033353912,9.695065982999999,5.5482,12.59994764,18.50323117
BIH,2017,1464314000,7.480823176,371963233.8,12185102463,7314177000,4870925463,-3729630,-24307000,-11352000,,-218375252.1,-45808301.9,22746000,104213771.8,1496521000,55264652.6,4.653689623,3.572635339,2.186,4.410996771,16.97681474
BIH,2018,2658770000,6.863585671,421676093.7,9548044242,4599408000,4948636242,-10139226,111621000,-30948000,,-113739786.7,917834.9,93856000,12265102.3,2669376000,91287093.8,4.577514685,32.20992271,22.8567,43.58045062,13.9498325
BIH,2019,14026000,6.088707021,468642176.3,9582100726,4681124000,4900976726,-13713892,23355000,-35668000,,-65711475.4,-59425483.3,59330000,131068238.2,23463000,51070557.5,5.274828792,31.62264536,21.9674,38.97934186,11.52735846
BIH,2020,715890000,6.480797009,485070256.7,10499189790,5299084000,5200105790,-10397148,53205000,-52551000,,369441410.3,1128914.8,26748000,24965410.6,726166000,21911864.4,6.413075383,36.74116329,19.7449,31.91661144,8.822010525
BIH,2021,-628011000,4.88550483,508207484.3,10105629935,4557961000,5547668935,-4815645,65760000,-75478000,,-15056235.6,-10386142,203564000,75761135,-619219000,153257067,4.689521777,24.03924931,18.8429,27.49490127,13.76867734
BIH,2022,23322000,4.047324771,472969172.6,9714212460,4588655000,5125557460,-1499158,11116000,-97629000,,-21215325.8,14622995.6,-53315000,18575157.2,30694000,-111404367.4,3.751265642,20.87843882,19.666,30.04447518,8.002875824
BIH,2023,467324000,7.641921293,850087159.8,10189244733,5062782000,5126462733,-249587.91,-10451000,-120425000,,-116646582.2,96701258.7,-18950000,15224458.6,474127000,50126488,6.438615207,21.89552301,20.6339,31.40555262,12.69898043
BIH,2024,,,,,,,,,,,,,,,,,,,,,
BLR,1960,,,,,,,,,,,,,,,,,,,,,
BLR,1961,,,,,,,,,,,,,,,,,,,,,
BLR,1962,,,,,,,,,,,,,,,,,,,,,
BLR,1963,,,,,,,,,,,,,,,,,,,,,
BLR,1964,,,,,,,,,,,,,,,,,,,,,
BLR,1965,,,,,,,,,,,,,,,,,,,,,
BLR,1966,,,,,,,,,,,,,,,,,,,,,
BLR,1967,,,,,,,,,,,,,,,,,,,,,
BLR,1968,,,,,,,,,,,,,,,,,,,,,
BLR,1969,,,,,,,,,,,,,,,,,,,,,
BLR,1970,,,,,,,,,,,,,,,,,,,,,
BLR,1971,,,,,,,,,,,,,,,,,,,,,
BLR,1972,,,,,,,,,,,,,,,,,,,,,
BLR,1973,,,,,,,,,,,,,,,,,,,,,
BLR,1974,,,,,,,,,,,,,,,,,,,,,
BLR,1975,,,,,,,,,,,,,,,,,,,,,
BLR,1976,,,,,,,,,,,,,,,,,,,,,
BLR,1977,,,,,,,,,,,,,,,,,,,,,
BLR,1978,,,,,,,,,,,,,,,,,,,,,
BLR,1979,,,,,,,,,,,,,,,,,,,,,
BLR,1980,,,,,,,,,,,,,,,,,,,,,
BLR,1981,,,,,,,,,,,,,,,,,,,,,
BLR,1982,,,,,,,,,,,,,,,,,,,,,
BLR,1983,,,,,,,,,,,,,,,,,,,,,
BLR,1984,,,,,,,,,,,,,,,,,,,,,
BLR,1985,,,,,,,,,,,,,,,,,,,,,
BLR,1986,,,,,,,,,,,,,,,,,,,,,
BLR,1987,,,,,,,,,,,,,,,,,,,,,
BLR,1988,,,,,,,,,,,,,,,,,,,,,
BLR,1989,,,,,,,,,,,,,,,,,,,,,
BLR,1990,,,,,,,,,,,,,,,,,,,,,
BLR,1991,,,,,,,,,,,,,,,,,,,,,
BLR,1992,,,,,,,,,,,,,,,,,,,,,
BLR,1993,,.6439110300000001,12572696,865064133.6,,865064133.6,0,100000,,,97887113.90000001,4131000,115927000,111695991.9,,211986216.2,.583392696,.321702009,.716,,.6439110300000001
BLR,1994,113170000,4.152635812,109530495.1,1123830184,,1123830184,0,100142000,,,,5601708.8,51340000,-54403842.4,,151582045.9,3.965766143,2.532983041,5.3975,69.27433808000001,4.279360169
BLR,1995,103389000,3.359242039,166754502,1301087086,,1301087086,0,11228000,,,182220221.9,22912473,7632000,-26508047.6,,47004296.8,3.163621742,2.085482282,6.4901,29.15645271,3.442433085
BLR,1996,340000,1.604090228,96364614.90000001,728852360.4,,728852360.4,0,13881000,,,,28700267.2,42581000,,,33223696,1.42294402,14.12498,48.8314,203.8946704,2.303198346
BLR,1997,-28036000,1.700815568,121809176.1,681412112.8,,681412112.8,0,13343000,,,,43093520.9,56437000,,,43375710.6,1.548021606,14.5425014,54.9527,290.6548761,2.429843235
BLR,1998,-6354000,1.921961085,100891055.1,796385081.9,,796385081.9,0,3567000,,,-24331090.7,9740289.699999999,13317000,10080.2,,90641661.7,1.416173817,18.91494684,56.4655,191.7503939,2.827775071
BLR,1999,-23622000,3.378054795,130705849.8,709096042.3,,709096042.3,0,1267000,,,-58148366.5,-9146182.5,-7879000,,,-3140240.6,2.035758115,20.40524149,48.4645,445.2092621,4.201043659
BLR,2000,22296000,3.619667298,171960976.4,787089604.7,98200000,688889604.7,0,-8754000,,,-55552533.6,-11722137.8,-23429000,-2953173.2,34525000,20970687.4,2.431059255,17.51084703,47.2724,353.3935695,5.508972451
BLR,2001,203077000,2.977327011,189264787.6,946006430.1,281700000,664306430.1,0,-7325000,,,-29748352.4,-14975243.4,-25285000,-2985112.6,188805000,-23330381.3,2.407887682,16.64951815,46.7599,334.9793108,4.303336527
BLR,2002,159809000,2.326374991,159888546.1,1213225956,464600000,748625955.7,0,-9788000,,,-30257168.9,-15296738.2,-30751000,-5666515,172766000,41069740.6,1.848507978,18.83335581,47.926,236.9947221,4.374446578
BLR,2003,1141000,1.919626375,169693347.1,1230794980,520800000,709994979.8,5400000,-14348000,,,-32685759.6,-13001434.7,-34134000,-6784965,50952000,-41269129.2,1.541573676,17.94110629,52.2527,310.2593174,3.883470195
BLR,2004,-10246000,1.621277978,215504002.4,1083758801,339400000,744358801.3,28600000,-13512000,,,-17314352,-13241796.9,-26754000,,49978000,78638865.90000001,1.423925484,19.40004625,63.8083,350.7991581,2.539471509
BLR,2005,59692000,1.362553171,216035632.7,1270226739,484679000,785547738.5,22666667.28,-8925000,,,-8630620.300000001,-10942851.3,-34817000,-14949060,61219000,78016851.40000001,1.220216286,19.78603422,66.0932,261.067766,3.956638358
BLR,2006,267054000,1.091947151,216141404.1,1625456795,783564000,841892794.9,-384848.21,-10284000,,,,-7878393.1,-18162000,,216335000,-14760752.8,.9907517179999999,20.08651488,66.7782,316.0718946,3.449521214
BLR,2007,1387951000,1.183726269,302061842.7,4582394368,1125134000,3457260368,-18523885.52,-8669000,,,,-5254867.5,-13924000,,310616000,1487184081,1.112632209,27.11453345,58.7665,176.1643738,4.051147554
BLR,2008,984741000,1.00295837,365087542.8,7027071605,1588516000,5438555605,-11978354.76,-866000,,,,-2143000,-3009000,,466405000,1465956300,.990000794,20.49477595,49.8781,246.7379233,3.790620223
BLR,2009,-452601000,2.36516895,573029186.9,9553289366,3311299000,6241990366,-2978354.86,213481000,,,2825192409,-2143000,211338000,,-105009000,1154641144,2.308953638,36.57113673,41.108,160.9179134,6.775541385
BLR,2010,74972000,2.209883926,590689334.3,12485561212,4471220000,8014341212,20821583.87,35705000,,,668250104.6,-2143000,33562000,,329142000,1470113458,1.981853099,39.80465964,41.7558,236.0736086,5.904897162
BLR,2011,-378809000,3.94924021,1778800673,16436757548,5821147000,10615610548,2958517.2,26212000,,,0,-2143600,2347746000,1240000000,450300000,2656568413,3.765279078,28.46078294,39.6241,170.9908577,6.886114446
BLR,2012,1466304000,7.427532557,3386104298,18532479333,5973415000,12559064333,17481908.48,106781000,,,-465114936.5,-1428000,-438030000,440000000,556397000,-1343175672,6.412748397,22.03544326,34.4691,143.7346434,9.527576682999999
BLR,2013,478425000,7.475799965,1666207019,23579479930,8957280000,14622199930,5600314,132329000,,,-1641310163,,1065036000,880000000,692617000,2257714621,3.710540363,31.31538792,35.5341,211.3258574,10.37749622
BLR,2014,-482856000,9.222428799999999,2803175524,26573021772,10937192000,15635829772,-5193838,33156000,,,-1262969043,243210.1,-110938000,-264828000,694903000,2773745156,6.341552609,29.0191117,32.0574,253.1200764,12.11892522
BLR,2015,-283021000,10.00148058,3263621235,26272608948,10435594000,15837014948,26304411,51997000,,,-76589481.3,,-292597000,-353103000,-441664000,1350288359,9.769712278,34.34904731,29.9924,274.9827103,14.89635717
BLR,2016,-3313185000,9.997794249,3058842743,26398413860,8256632000,18141781860,-8386334,82810000,,,,362998.1,526497000,-351764997.8,-2229019000,913574073.5,9.996381454,34.71283518,28.3131,216.4385174,20.31890734
